423.0 261.0 728.0 460.0 695.0 521.0 
422.0 263.0 713.0 462.0 693.0 521.0 
420.0 265.0 697.0 462.0 693.0 521.0 
418.0 266.0 681.0 465.0 690.0 521.0 
416.0 268.0 663.0 465.0 690.0 521.0 
414.0 270.0 644.0 465.0 687.0 521.0 
412.0 272.0 624.0 468.0 685.0 521.0 
409.0 273.0 603.0 468.0 687.0 521.0 
406.0 275.0 581.0 468.0 685.0 519.0 
404.0 277.0 561.0 465.0 687.0 519.0 
401.0 279.0 541.0 462.0 685.0 519.0 
398.0 282.0 519.0 460.0 687.0 521.0 
396.0 284.0 497.0 460.0 687.0 521.0 
393.0 287.0 474.0 460.0 687.0 521.0 
391.0 290.0 453.0 457.0 687.0 524.0 
390.0 292.0 434.0 457.0 690.0 529.0 
390.0 294.0 416.0 460.0 690.0 529.0 
393.0 297.0 402.0 460.0 690.0 534.0 
400.0 299.0 389.0 462.0 693.0 534.0 
412.0 301.0 379.0 468.0 693.0 534.0 
427.0 303.0 371.0 475.0 693.0 537.0 
446.0 306.0 364.0 483.0 693.0 534.0 
467.0 307.0 360.0 488.0 690.0 534.0 
488.0 309.0 357.0 493.0 690.0 531.0 
510.0 310.0 355.0 498.0 682.0 526.0 
530.0 311.0 352.0 501.0 682.0 529.0 
548.0 312.0 350.0 503.0 680.0 526.0 
564.0 313.0 348.0 506.0 680.0 524.0 
577.0 313.0 346.0 508.0 677.0 524.0 
586.0 314.0 343.0 506.0 675.0 524.0 
591.0 314.0 340.0 508.0 672.0 524.0 
592.0 314.0 338.0 506.0 670.0 521.0 
589.0 313.0 335.0 508.0 667.0 519.0 
585.0 313.0 332.0 519.0 664.0 508.0 
578.0 312.0 330.0 534.0 677.0 488.0 
570.0 311.0 328.0 542.0 680.0 475.0 
563.0 310.0 326.0 560.0 667.0 473.0 
555.0 309.0 322.0 562.0 647.0 473.0 
548.0 307.0 319.0 554.0 649.0 480.0 
541.0 305.0 315.0 544.0 654.0 488.0 
534.0 302.0 311.0 531.0 657.0 503.0 
528.0 300.0 307.0 514.0 662.0 516.0 
521.0 298.0 302.0 496.0 670.0 531.0 
513.0 296.0 298.0 488.0 670.0 539.0 
505.0 293.0 292.0 483.0 672.0 544.0 
496.0 291.0 287.0 483.0 670.0 544.0 
486.0 289.0 283.0 480.0 672.0 544.0 
478.0 288.0 281.0 483.0 670.0 544.0 
470.0 286.0 279.0 483.0 672.0 544.0 
462.0 285.0 280.0 483.0 672.0 544.0 
456.0 284.0 288.0 483.0 672.0 544.0 
450.0 283.0 303.0 483.0 677.0 542.0 
445.0 282.0 329.0 485.0 687.0 526.0 
442.0 281.0 366.0 534.0 652.0 478.0 
438.0 280.0 412.0 667.0 554.0 388.0 
436.0 280.0 466.0 907.0 470.0 345.0 
434.0 279.0 523.0 1023.0 439.0 452.0 
433.0 279.0 579.0 728.0 583.0 716.0 
431.0 280.0 631.0 567.0 616.0 744.0 
431.0 280.0 671.0 526.0 639.0 629.0 
430.0 281.0 701.0 491.0 670.0 572.0 
430.0 283.0 727.0 468.0 690.0 544.0 
429.0 284.0 747.0 452.0 693.0 534.0 
429.0 286.0 759.0 447.0 700.0 531.0 
429.0 287.0 764.0 447.0 698.0 529.0 
429.0 289.0 764.0 450.0 700.0 526.0 
428.0 290.0 758.0 452.0 698.0 524.0 
428.0 292.0 749.0 455.0 698.0 524.0 
427.0 294.0 737.0 460.0 695.0 521.0 
425.0 295.0 723.0 460.0 693.0 521.0 
424.0 297.0 709.0 462.0 690.0 521.0 
422.0 300.0 694.0 462.0 690.0 521.0 
420.0 302.0 680.0 465.0 687.0 519.0 
418.0 305.0 664.0 468.0 687.0 519.0 
416.0 307.0 646.0 465.0 685.0 519.0 
414.0 310.0 628.0 473.0 682.0 516.0 
412.0 312.0 607.0 473.0 682.0 516.0 
409.0 314.0 586.0 473.0 680.0 516.0 
407.0 316.0 563.0 470.0 682.0 516.0 
404.0 319.0 539.0 468.0 682.0 516.0 
402.0 321.0 516.0 465.0 685.0 519.0 
399.0 323.0 493.0 462.0 685.0 519.0 
397.0 325.0 470.0 465.0 687.0 519.0 
395.0 327.0 449.0 468.0 685.0 519.0 
394.0 328.0 432.0 462.0 687.0 521.0 
395.0 330.0 417.0 462.0 687.0 524.0 
398.0 332.0 404.0 465.0 690.0 526.0 
407.0 333.0 391.0 468.0 693.0 526.0 
420.0 334.0 380.0 470.0 695.0 529.0 
437.0 336.0 371.0 478.0 693.0 526.0 
457.0 336.0 364.0 478.0 695.0 531.0 
478.0 336.0 358.0 485.0 693.0 529.0 
500.0 336.0 354.0 493.0 690.0 526.0 
522.0 336.0 350.0 498.0 682.0 524.0 
542.0 336.0 348.0 503.0 677.0 521.0 
560.0 335.0 347.0 506.0 675.0 521.0 
576.0 335.0 346.0 503.0 675.0 521.0 
587.0 335.0 346.0 506.0 670.0 519.0 
596.0 335.0 345.0 508.0 670.0 516.0 
600.0 334.0 343.0 506.0 670.0 516.0 
600.0 334.0 342.0 501.0 670.0 519.0 
597.0 334.0 340.0 503.0 667.0 514.0 
591.0 332.0 338.0 511.0 662.0 503.0 
584.0 331.0 336.0 534.0 675.0 483.0 
576.0 330.0 333.0 544.0 672.0 468.0 
568.0 328.0 330.0 557.0 664.0 468.0 
561.0 326.0 327.0 562.0 647.0 465.0 
553.0 325.0 324.0 557.0 649.0 470.0 
546.0 324.0 322.0 547.0 654.0 480.0 
539.0 323.0 322.0 537.0 659.0 491.0 
531.0 321.0 321.0 519.0 662.0 506.0 
524.0 320.0 319.0 498.0 670.0 521.0 
516.0 318.0 316.0 483.0 672.0 534.0 
507.0 317.0 312.0 483.0 670.0 531.0 
498.0 315.0 309.0 488.0 670.0 534.0 
488.0 313.0 305.0 483.0 677.0 534.0 
479.0 311.0 303.0 488.0 670.0 531.0 
470.0 310.0 304.0 491.0 672.0 534.0 
462.0 307.0 308.0 488.0 672.0 534.0 
456.0 305.0 319.0 485.0 675.0 534.0 
450.0 302.0 339.0 485.0 680.0 534.0 
445.0 299.0 363.0 493.0 685.0 519.0 
442.0 296.0 392.0 539.0 652.0 470.0 
438.0 293.0 432.0 685.0 554.0 375.0 
436.0 290.0 479.0 933.0 460.0 314.0 
434.0 287.0 530.0 1023.0 421.0 421.0 
433.0 284.0 581.0 721.0 565.0 687.0 
432.0 281.0 628.0 554.0 613.0 726.0 
432.0 278.0 669.0 514.0 641.0 613.0 
432.0 275.0 703.0 483.0 672.0 565.0 
432.0 273.0 729.0 462.0 690.0 542.0 
431.0 270.0 746.0 450.0 700.0 534.0 
431.0 268.0 756.0 447.0 703.0 524.0 
430.0 265.0 759.0 450.0 700.0 521.0 
430.0 263.0 758.0 457.0 703.0 519.0 
429.0 261.0 752.0 455.0 700.0 519.0 
428.0 258.0 744.0 457.0 703.0 521.0 
427.0 256.0 734.0 460.0 698.0 516.0 
425.0 254.0 722.0 462.0 695.0 514.0 
424.0 252.0 708.0 470.0 690.0 511.0 
422.0 250.0 694.0 468.0 693.0 514.0 
420.0 249.0 679.0 473.0 690.0 511.0 
418.0 248.0 663.0 470.0 690.0 511.0 
416.0 247.0 646.0 473.0 685.0 511.0 
413.0 246.0 627.0 473.0 687.0 514.0 
411.0 246.0 608.0 468.0 687.0 514.0 
408.0 246.0 590.0 468.0 687.0 516.0 
406.0 246.0 572.0 468.0 687.0 516.0 
403.0 246.0 552.0 468.0 690.0 516.0 
400.0 246.0 531.0 465.0 690.0 516.0 
398.0 246.0 510.0 460.0 690.0 519.0 
395.0 246.0 490.0 462.0 690.0 521.0 
393.0 247.0 471.0 460.0 695.0 524.0 
392.0 248.0 453.0 462.0 698.0 524.0 
393.0 248.0 438.0 460.0 698.0 526.0 
396.0 249.0 424.0 465.0 698.0 529.0 
404.0 250.0 412.0 470.0 698.0 529.0 
417.0 250.0 403.0 473.0 700.0 534.0 
435.0 251.0 396.0 483.0 698.0 531.0 
455.0 252.0 390.0 488.0 698.0 529.0 
477.0 253.0 387.0 493.0 695.0 529.0 
500.0 254.0 384.0 496.0 693.0 531.0 
523.0 255.0 382.0 503.0 687.0 526.0 
544.0 256.0 381.0 508.0 685.0 526.0 
563.0 256.0 380.0 508.0 682.0 524.0 
579.0 257.0 378.0 511.0 680.0 524.0 
591.0 257.0 377.0 511.0 677.0 524.0 
599.0 257.0 375.0 514.0 675.0 521.0 
603.0 257.0 373.0 511.0 672.0 521.0 
602.0 256.0 371.0 511.0 675.0 521.0 
597.0 255.0 368.0 514.0 670.0 519.0 
590.0 255.0 366.0 516.0 667.0 514.0 
582.0 254.0 365.0 534.0 680.0 493.0 
573.0 253.0 362.0 544.0 682.0 480.0 
564.0 252.0 359.0 557.0 675.0 475.0 
555.0 251.0 356.0 567.0 654.0 473.0 
547.0 251.0 352.0 560.0 652.0 480.0 
540.0 250.0 348.0 552.0 654.0 491.0 
533.0 249.0 344.0 542.0 662.0 496.0 
526.0 248.0 340.0 524.0 664.0 511.0 
519.0 247.0 335.0 506.0 672.0 529.0 
512.0 246.0 331.0 491.0 672.0 537.0 
504.0 245.0 326.0 493.0 672.0 542.0 
496.0 244.0 321.0 491.0 672.0 544.0 
487.0 243.0 317.0 488.0 675.0 544.0 
479.0 242.0 315.0 488.0 672.0 544.0 
471.0 241.0 313.0 488.0 675.0 547.0 
464.0 240.0 314.0 485.0 672.0 544.0 
458.0 239.0 321.0 485.0 675.0 544.0 
452.0 239.0 337.0 488.0 677.0 544.0 
448.0 238.0 361.0 491.0 685.0 531.0 
445.0 238.0 396.0 539.0 652.0 483.0 
442.0 238.0 439.0 675.0 565.0 391.0 
440.0 237.0 488.0 920.0 473.0 332.0 
438.0 237.0 540.0 1023.0 432.0 429.0 
437.0 237.0 590.0 754.0 557.0 690.0 
436.0 237.0 631.0 565.0 608.0 739.0 
436.0 237.0 663.0 521.0 636.0 634.0 
436.0 237.0 693.0 485.0 672.0 580.0 
436.0 236.0 716.0 470.0 690.0 552.0 
435.0 236.0 731.0 455.0 700.0 539.0 
435.0 235.0 739.0 452.0 703.0 534.0 
434.0 235.0 740.0 452.0 703.0 534.0 
434.0 234.0 735.0 455.0 703.0 531.0 
433.0 234.0 726.0 457.0 703.0 531.0 
431.0 234.0 714.0 460.0 700.0 524.0 
430.0 234.0 700.0 460.0 700.0 524.0 
429.0 234.0 685.0 462.0 698.0 524.0 
427.0 234.0 668.0 468.0 695.0 521.0 
425.0 234.0 653.0 468.0 695.0 524.0 
423.0 234.0 638.0 468.0 695.0 524.0 
421.0 234.0 622.0 470.0 690.0 521.0 
419.0 234.0 606.0 473.0 690.0 521.0 
416.0 234.0 588.0 470.0 690.0 521.0 
413.0 235.0 570.0 470.0 690.0 521.0 
411.0 236.0 551.0 470.0 690.0 521.0 
408.0 237.0 530.0 470.0 687.0 521.0 
405.0 238.0 510.0 465.0 687.0 521.0 
402.0 239.0 489.0 462.0 687.0 524.0 
400.0 240.0 468.0 460.0 690.0 524.0 
397.0 242.0 449.0 460.0 690.0 526.0 
395.0 243.0 432.0 460.0 693.0 529.0 
394.0 245.0 418.0 460.0 693.0 531.0 
393.0 246.0 405.0 460.0 695.0 534.0 
396.0 248.0 392.0 465.0 693.0 534.0 
404.0 249.0 381.0 468.0 695.0 539.0 
416.0 250.0 372.0 473.0 698.0 537.0 
432.0 252.0 364.0 478.0 698.0 537.0 
452.0 252.0 359.0 485.0 695.0 537.0 
472.0 253.0 355.0 491.0 695.0 534.0 
494.0 254.0 352.0 496.0 690.0 534.0 
515.0 254.0 350.0 501.0 687.0 534.0 
536.0 254.0 348.0 506.0 680.0 531.0 
554.0 254.0 347.0 508.0 677.0 529.0 
569.0 253.0 347.0 506.0 675.0 531.0 
581.0 253.0 346.0 508.0 672.0 529.0 
590.0 253.0 345.0 508.0 670.0 526.0 
594.0 253.0 343.0 508.0 670.0 529.0 
594.0 252.0 341.0 506.0 670.0 526.0 
592.0 251.0 338.0 508.0 667.0 524.0 
586.0 249.0 335.0 506.0 664.0 519.0 
579.0 248.0 332.0 529.0 675.0 498.0 
572.0 245.0 329.0 542.0 680.0 483.0 
564.0 243.0 326.0 557.0 672.0 478.0 
556.0 241.0 323.0 562.0 652.0 478.0 
549.0 239.0 319.0 557.0 644.0 480.0 
542.0 237.0 317.0 547.0 652.0 493.0 
535.0 235.0 315.0 542.0 657.0 498.0 
528.0 233.0 312.0 524.0 662.0 511.0 
521.0 231.0 308.0 506.0 667.0 526.0 
513.0 229.0 305.0 491.0 675.0 544.0 
505.0 227.0 301.0 485.0 675.0 547.0 
496.0 225.0 297.0 483.0 675.0 549.0 
487.0 224.0 293.0 483.0 675.0 547.0 
478.0 223.0 290.0 483.0 677.0 549.0 
470.0 222.0 289.0 485.0 675.0 549.0 
463.0 221.0 292.0 483.0 677.0 549.0 
456.0 220.0 300.0 483.0 677.0 549.0 
451.0 220.0 313.0 485.0 677.0 547.0 
446.0 219.0 333.0 485.0 685.0 537.0 
442.0 219.0 363.0 519.0 667.0 501.0 
439.0 219.0 402.0 631.0 583.0 411.0 
437.0 219.0 449.0 851.0 485.0 345.0 
435.0 220.0 499.0 1023.0 439.0 396.0 
434.0 221.0 550.0 800.0 554.0 675.0 
433.0 222.0 597.0 585.0 608.0 744.0 
432.0 222.0 639.0 531.0 634.0 652.0 
432.0 223.0 672.0 493.0 664.0 590.0 
432.0 224.0 697.0 473.0 685.0 560.0 
431.0 225.0 714.0 452.0 698.0 544.0 
431.0 226.0 723.0 447.0 698.0 537.0 
430.0 227.0 725.0 447.0 698.0 539.0 
429.0 228.0 723.0 447.0 700.0 537.0 
428.0 230.0 717.0 450.0 703.0 534.0 
427.0 231.0 709.0 452.0 698.0 529.0 
426.0 233.0 698.0 455.0 695.0 526.0 
424.0 235.0 685.0 460.0 693.0 529.0 
422.0 236.0 672.0 460.0 693.0 526.0 
421.0 238.0 657.0 460.0 690.0 526.0 
419.0 241.0 642.0 460.0 690.0 529.0 
417.0 243.0 626.0 465.0 690.0 524.0 
415.0 246.0 609.0 462.0 687.0 524.0 
413.0 249.0 591.0 468.0 685.0 524.0 
410.0 252.0 574.0 462.0 685.0 524.0 
407.0 255.0 557.0 462.0 682.0 521.0 
405.0 258.0 538.0 465.0 682.0 521.0 
402.0 260.0 518.0 462.0 682.0 524.0 
400.0 263.0 496.0 460.0 685.0 524.0 
397.0 265.0 475.0 460.0 682.0 524.0 
395.0 267.0 454.0 460.0 685.0 526.0 
393.0 269.0 435.0 457.0 687.0 529.0 
391.0 272.0 417.0 460.0 690.0 531.0 
391.0 274.0 402.0 460.0 690.0 531.0 
393.0 277.0 388.0 460.0 687.0 534.0 
400.0 279.0 376.0 462.0 690.0 537.0 
411.0 281.0 367.0 470.0 690.0 539.0 
427.0 282.0 360.0 475.0 690.0 539.0 
446.0 284.0 356.0 483.0 690.0 539.0 
466.0 285.0 352.0 485.0 690.0 537.0 
487.0 286.0 348.0 493.0 687.0 534.0 
508.0 287.0 346.0 496.0 685.0 534.0 
529.0 288.0 344.0 501.0 680.0 534.0 
547.0 288.0 342.0 498.0 680.0 534.0 
563.0 288.0 341.0 503.0 677.0 531.0 
575.0 288.0 339.0 503.0 675.0 531.0 
585.0 288.0 337.0 503.0 670.0 529.0 
590.0 287.0 335.0 503.0 670.0 529.0 
591.0 286.0 332.0 501.0 667.0 531.0 
589.0 285.0 331.0 503.0 664.0 526.0 
585.0 284.0 329.0 508.0 659.0 519.0 
578.0 282.0 327.0 524.0 672.0 501.0 
571.0 280.0 325.0 534.0 675.0 485.0 
564.0 278.0 323.0 549.0 667.0 483.0 
557.0 276.0 320.0 557.0 647.0 483.0 
550.0 274.0 317.0 554.0 641.0 480.0 
543.0 271.0 314.0 542.0 644.0 496.0 
536.0 269.0 311.0 531.0 649.0 506.0 
530.0 267.0 308.0 519.0 654.0 519.0 
523.0 265.0 305.0 501.0 662.0 531.0 
515.0 263.0 301.0 483.0 667.0 547.0 
507.0 261.0 297.0 480.0 667.0 549.0 
498.0 259.0 294.0 478.0 667.0 552.0 
489.0 257.0 291.0 480.0 667.0 554.0 
480.0 255.0 288.0 480.0 667.0 554.0 
471.0 253.0 287.0 478.0 667.0 557.0 
464.0 251.0 288.0 475.0 667.0 554.0 
457.0 250.0 294.0 478.0 670.0 554.0 
451.0 248.0 307.0 478.0 672.0 554.0 
446.0 247.0 329.0 478.0 680.0 542.0 
442.0 247.0 361.0 511.0 664.0 506.0 
438.0 247.0 401.0 616.0 580.0 421.0 
436.0 247.0 448.0 823.0 485.0 358.0 
433.0 248.0 499.0 1023.0 445.0 411.0 
432.0 249.0 543.0 800.0 557.0 680.0 
431.0 250.0 582.0 583.0 608.0 754.0 
431.0 250.0 622.0 526.0 631.0 657.0 
430.0 251.0 657.0 491.0 657.0 595.0 
430.0 252.0 686.0 462.0 677.0 560.0 
430.0 253.0 706.0 447.0 687.0 544.0 
429.0 255.0 719.0 442.0 690.0 542.0 
429.0 256.0 725.0 442.0 693.0 539.0 
429.0 258.0 726.0 445.0 690.0 539.0 
428.0 261.0 722.0 447.0 690.0 534.0 
427.0 263.0 714.0 447.0 690.0 534.0 
425.0 266.0 703.0 450.0 690.0 531.0 
424.0 269.0 691.0 452.0 687.0 529.0 
422.0 271.0 679.0 452.0 687.0 531.0 
421.0 274.0 666.0 457.0 685.0 529.0 
419.0 276.0 652.0 460.0 685.0 526.0 
416.0 279.0 638.0 460.0 682.0 524.0 
414.0 282.0 622.0 462.0 682.0 524.0 
411.0 284.0 605.0 465.0 680.0 524.0 
409.0 287.0 587.0 460.0 680.0 526.0 
406.0 290.0 567.0 460.0 675.0 526.0 
403.0 294.0 547.0 460.0 675.0 526.0 
401.0 297.0 525.0 462.0 675.0 524.0 
398.0 300.0 503.0 460.0 680.0 524.0 
396.0 304.0 482.0 460.0 680.0 526.0 
393.0 307.0 463.0 455.0 680.0 526.0 
391.0 310.0 447.0 452.0 685.0 529.0 
390.0 312.0 429.0 450.0 685.0 534.0 
389.0 315.0 412.0 452.0 685.0 537.0 
391.0 318.0 397.0 457.0 685.0 537.0 
397.0 320.0 385.0 460.0 685.0 539.0 
407.0 322.0 368.0 465.0 687.0 539.0 
423.0 325.0 350.0 470.0 690.0 537.0 
441.0 327.0 339.0 473.0 685.0 539.0 
461.0 329.0 331.0 483.0 685.0 537.0 
483.0 330.0 326.0 488.0 680.0 534.0 
504.0 331.0 323.0 496.0 680.0 537.0 
524.0 332.0 321.0 501.0 675.0 534.0 
543.0 332.0 320.0 501.0 670.0 534.0 
559.0 332.0 319.0 506.0 667.0 531.0 
572.0 332.0 319.0 508.0 667.0 529.0 
582.0 331.0 318.0 503.0 664.0 531.0 
588.0 331.0 317.0 501.0 662.0 534.0 
590.0 329.0 315.0 506.0 659.0 524.0 
589.0 328.0 314.0 503.0 662.0 521.0 
585.0 327.0 312.0 508.0 657.0 516.0 
579.0 325.0 310.0 526.0 670.0 496.0 
572.0 322.0 307.0 537.0 667.0 480.0 
564.0 320.0 305.0 549.0 662.0 478.0 
557.0 317.0 302.0 554.0 641.0 478.0 
550.0 315.0 300.0 557.0 639.0 475.0 
544.0 312.0 298.0 544.0 647.0 491.0 
538.0 309.0 295.0 531.0 652.0 501.0 
531.0 306.0 291.0 511.0 657.0 514.0 
524.0 303.0 287.0 493.0 662.0 529.0 
517.0 300.0 283.0 483.0 664.0 539.0 
509.0 298.0 279.0 480.0 664.0 544.0 
501.0 295.0 275.0 478.0 667.0 544.0 
491.0 293.0 270.0 475.0 664.0 544.0 
483.0 290.0 266.0 478.0 667.0 544.0 
474.0 288.0 263.0 473.0 667.0 544.0 
467.0 286.0 264.0 478.0 667.0 542.0 
460.0 284.0 270.0 483.0 662.0 542.0 
453.0 283.0 282.0 483.0 667.0 539.0 
448.0 282.0 300.0 483.0 675.0 526.0 
443.0 280.0 328.0 531.0 647.0 478.0 
439.0 279.0 367.0 662.0 554.0 388.0 
436.0 278.0 415.0 905.0 460.0 329.0 
433.0 278.0 467.0 1023.0 421.0 419.0 
431.0 277.0 522.0 739.0 560.0 690.0 
429.0 276.0 574.0 560.0 603.0 736.0 
429.0 276.0 621.0 516.0 634.0 626.0 
428.0 275.0 660.0 485.0 662.0 570.0 
427.0 275.0 690.0 455.0 685.0 547.0 
426.0 274.0 711.0 447.0 690.0 531.0 
425.0 274.0 723.0 442.0 693.0 529.0 
424.0 273.0 727.0 445.0 695.0 524.0 
424.0 273.0 728.0 447.0 693.0 521.0 
422.0 272.0 724.0 447.0 695.0 521.0 
421.0 271.0 717.0 447.0 690.0 521.0 
420.0 270.0 708.0 447.0 693.0 521.0 
419.0 269.0 696.0 455.0 687.0 521.0 
417.0 267.0 683.0 452.0 690.0 521.0 
415.0 266.0 668.0 457.0 687.0 521.0 
413.0 264.0 653.0 460.0 687.0 521.0 
412.0 263.0 637.0 460.0 687.0 519.0 
409.0 262.0 620.0 457.0 687.0 521.0 
407.0 261.0 602.0 460.0 680.0 519.0 
405.0 260.0 585.0 457.0 682.0 519.0 
402.0 260.0 568.0 460.0 680.0 516.0 
399.0 259.0 548.0 460.0 680.0 514.0 
397.0 258.0 527.0 460.0 680.0 516.0 
394.0 258.0 504.0 460.0 680.0 519.0 
392.0 257.0 481.0 457.0 680.0 519.0 
390.0 257.0 458.0 460.0 682.0 521.0 
388.0 257.0 437.0 455.0 687.0 524.0 
386.0 257.0 416.0 452.0 687.0 529.0 
386.0 256.0 398.0 455.0 687.0 531.0 
389.0 256.0 381.0 457.0 687.0 534.0 
395.0 256.0 367.0 460.0 690.0 534.0 
406.0 256.0 356.0 468.0 690.0 534.0 
422.0 255.0 347.0 475.0 687.0 534.0 
441.0 254.0 340.0 480.0 690.0 534.0 
461.0 253.0 333.0 485.0 687.0 534.0 
483.0 253.0 327.0 491.0 682.0 534.0 
504.0 251.0 323.0 498.0 680.0 529.0 
525.0 250.0 320.0 501.0 680.0 526.0 
544.0 249.0 317.0 501.0 672.0 529.0 
561.0 248.0 315.0 506.0 670.0 526.0 
574.0 247.0 313.0 506.0 667.0 526.0 
583.0 245.0 312.0 506.0 664.0 524.0 
589.0 244.0 310.0 503.0 667.0 524.0 
591.0 242.0 307.0 508.0 662.0 521.0 
589.0 241.0 306.0 508.0 659.0 519.0 
585.0 239.0 305.0 516.0 657.0 508.0 
578.0 238.0 304.0 531.0 672.0 491.0 
571.0 236.0 302.0 542.0 670.0 478.0 
563.0 235.0 300.0 557.0 657.0 475.0 
556.0 234.0 297.0 562.0 641.0 478.0 
549.0 232.0 294.0 554.0 641.0 485.0 
542.0 231.0 291.0 547.0 649.0 491.0 
536.0 230.0 288.0 534.0 654.0 503.0 
530.0 229.0 285.0 519.0 657.0 514.0 
523.0 228.0 281.0 506.0 664.0 529.0 
516.0 228.0 278.0 496.0 667.0 534.0 
508.0 227.0 275.0 491.0 667.0 539.0 
500.0 227.0 273.0 493.0 667.0 537.0 
491.0 227.0 269.0 491.0 667.0 539.0 
483.0 227.0 265.0 491.0 667.0 542.0 
475.0 228.0 262.0 491.0 664.0 539.0 
468.0 229.0 262.0 488.0 667.0 542.0 
462.0 230.0 267.0 491.0 667.0 539.0 
457.0 232.0 280.0 488.0 675.0 542.0 
452.0 234.0 303.0 501.0 677.0 514.0 
449.0 236.0 336.0 572.0 626.0 447.0 
446.0 237.0 379.0 754.0 521.0 360.0 
445.0 239.0 429.0 999.0 432.0 327.0 
443.0 242.0 484.0 1023.0 409.0 493.0 
443.0 245.0 532.0 672.0 562.0 710.0 
442.0 248.0 574.0 547.0 606.0 721.0 
442.0 251.0 617.0 508.0 644.0 608.0 
443.0 254.0 656.0 480.0 672.0 562.0 
443.0 258.0 687.0 462.0 690.0 542.0 
443.0 261.0 709.0 455.0 693.0 534.0 
443.0 264.0 723.0 450.0 698.0 534.0 
442.0 267.0 730.0 452.0 698.0 529.0 
442.0 271.0 730.0 455.0 700.0 531.0 
440.0 275.0 725.0 457.0 695.0 529.0 
439.0 279.0 717.0 460.0 698.0 526.0 
437.0 283.0 705.0 460.0 693.0 524.0 
436.0 287.0 693.0 465.0 695.0 524.0 
433.0 291.0 680.0 468.0 690.0 521.0 
431.0 295.0 666.0 468.0 690.0 521.0 
429.0 298.0 651.0 468.0 690.0 521.0 
426.0 302.0 635.0 468.0 690.0 521.0 
423.0 305.0 618.0 470.0 690.0 521.0 
420.0 308.0 601.0 470.0 687.0 521.0 
416.0 311.0 582.0 473.0 687.0 521.0 
413.0 314.0 562.0 468.0 685.0 521.0 
410.0 316.0 541.0 470.0 687.0 521.0 
407.0 319.0 519.0 468.0 690.0 521.0 
404.0 321.0 497.0 460.0 690.0 521.0 
401.0 324.0 478.0 460.0 690.0 526.0 
398.0 326.0 460.0 455.0 693.0 529.0 
396.0 328.0 442.0 457.0 693.0 531.0 
394.0 329.0 424.0 457.0 698.0 531.0 
395.0 330.0 408.0 460.0 698.0 531.0 
399.0 331.0 393.0 460.0 698.0 534.0 
408.0 331.0 381.0 468.0 698.0 534.0 
422.0 332.0 371.0 473.0 700.0 534.0 
440.0 332.0 364.0 478.0 698.0 537.0 
460.0 332.0 358.0 488.0 698.0 534.0 
482.0 332.0 355.0 496.0 690.0 534.0 
505.0 332.0 352.0 498.0 690.0 534.0 
526.0 331.0 350.0 506.0 690.0 529.0 
546.0 330.0 349.0 508.0 682.0 526.0 
563.0 330.0 349.0 508.0 680.0 524.0 
577.0 328.0 348.0 508.0 677.0 526.0 
588.0 326.0 348.0 508.0 672.0 526.0 
594.0 323.0 347.0 508.0 672.0 524.0 
596.0 320.0 347.0 511.0 670.0 524.0 
595.0 317.0 346.0 514.0 672.0 521.0 
590.0 313.0 345.0 516.0 667.0 514.0 
584.0 310.0 343.0 524.0 672.0 506.0 
576.0 306.0 342.0 542.0 680.0 485.0 
568.0 302.0 340.0 549.0 682.0 475.0 
560.0 298.0 338.0 565.0 667.0 473.0 
552.0 293.0 337.0 567.0 652.0 473.0 
545.0 289.0 336.0 557.0 654.0 485.0 
538.0 284.0 334.0 547.0 659.0 491.0 
531.0 279.0 331.0 534.0 664.0 503.0 
525.0 274.0 329.0 519.0 667.0 516.0 
518.0 269.0 326.0 501.0 672.0 531.0 
510.0 264.0 323.0 491.0 670.0 542.0 
501.0 260.0 319.0 488.0 672.0 544.0 
493.0 256.0 316.0 491.0 670.0 544.0 
484.0 253.0 312.0 488.0 672.0 544.0 
476.0 250.0 308.0 488.0 670.0 544.0 
468.0 247.0 308.0 488.0 672.0 544.0 
460.0 244.0 312.0 488.0 672.0 544.0 
454.0 241.0 320.0 488.0 672.0 547.0 
449.0 239.0 334.0 488.0 677.0 542.0 
445.0 237.0 359.0 501.0 682.0 516.0 
441.0 236.0 394.0 577.0 626.0 447.0 
438.0 234.0 439.0 741.0 521.0 365.0 
437.0 233.0 490.0 994.0 437.0 337.0 
435.0 231.0 543.0 1023.0 427.0 542.0 
434.0 230.0 596.0 662.0 583.0 739.0 
433.0 228.0 644.0 549.0 616.0 687.0 
433.0 228.0 684.0 514.0 649.0 606.0 
432.0 227.0 716.0 483.0 677.0 565.0 
432.0 227.0 738.0 462.0 693.0 542.0 
432.0 228.0 750.0 455.0 698.0 534.0 
431.0 228.0 755.0 452.0 700.0 531.0 
430.0 228.0 755.0 455.0 698.0 529.0 
429.0 228.0 750.0 455.0 703.0 529.0 
428.0 229.0 741.0 457.0 700.0 526.0 
427.0 229.0 730.0 455.0 700.0 529.0 
425.0 229.0 716.0 462.0 698.0 524.0 
424.0 230.0 701.0 462.0 698.0 524.0 
422.0 230.0 685.0 470.0 695.0 521.0 
420.0 231.0 668.0 470.0 693.0 521.0 
418.0 232.0 651.0 470.0 690.0 521.0 
415.0 233.0 632.0 470.0 690.0 521.0 
413.0 234.0 613.0 470.0 690.0 519.0 
410.0 236.0 595.0 473.0 687.0 519.0 
407.0 238.0 577.0 473.0 682.0 519.0 
405.0 240.0 557.0 473.0 685.0 519.0 
402.0 243.0 535.0 473.0 685.0 516.0 
399.0 245.0 513.0 470.0 685.0 519.0 
397.0 248.0 489.0 470.0 687.0 516.0 
394.0 251.0 466.0 462.0 690.0 519.0 
391.0 254.0 444.0 462.0 690.0 521.0 
390.0 257.0 423.0 460.0 690.0 526.0 
389.0 259.0 404.0 460.0 690.0 526.0 
389.0 262.0 387.0 465.0 690.0 529.0 
393.0 264.0 372.0 470.0 690.0 529.0 
403.0 267.0 361.0 473.0 690.0 531.0 
416.0 269.0 352.0 478.0 693.0 531.0 
434.0 271.0 344.0 483.0 690.0 531.0 
454.0 274.0 337.0 488.0 690.0 531.0 
476.0 275.0 332.0 496.0 690.0 529.0 
498.0 277.0 328.0 498.0 687.0 529.0 
519.0 278.0 324.0 503.0 682.0 526.0 
539.0 280.0 321.0 506.0 680.0 524.0 
556.0 281.0 319.0 508.0 675.0 524.0 
571.0 282.0 317.0 508.0 672.0 521.0 
582.0 282.0 315.0 508.0 667.0 521.0 
589.0 283.0 312.0 508.0 667.0 521.0 
593.0 283.0 309.0 508.0 667.0 521.0 
592.0 282.0 307.0 508.0 667.0 521.0 
588.0 281.0 305.0 511.0 664.0 511.0 
583.0 280.0 302.0 524.0 670.0 501.0 
575.0 278.0 299.0 542.0 677.0 480.0 
568.0 277.0 295.0 549.0 677.0 473.0 
560.0 275.0 292.0 560.0 657.0 473.0 
552.0 274.0 287.0 562.0 644.0 473.0 
545.0 272.0 283.0 552.0 647.0 480.0 
538.0 270.0 278.0 544.0 657.0 488.0 
531.0 268.0 273.0 529.0 659.0 506.0 
525.0 267.0 269.0 519.0 664.0 516.0 
517.0 265.0 264.0 501.0 670.0 531.0 
509.0 263.0 261.0 491.0 670.0 537.0 
501.0 261.0 258.0 488.0 670.0 539.0 
492.0 259.0 254.0 488.0 670.0 542.0 
483.0 258.0 249.0 488.0 670.0 542.0 
475.0 257.0 245.0 491.0 670.0 544.0 
467.0 255.0 243.0 488.0 672.0 544.0 
460.0 254.0 244.0 488.0 670.0 542.0 
453.0 254.0 253.0 488.0 672.0 544.0 
448.0 253.0 270.0 493.0 680.0 537.0 
444.0 252.0 298.0 491.0 685.0 514.0 
440.0 252.0 336.0 577.0 624.0 447.0 
437.0 252.0 383.0 744.0 521.0 360.0 
435.0 252.0 436.0 992.0 445.0 340.0 
433.0 252.0 484.0 1023.0 501.0 552.0 
431.0 253.0 529.0 657.0 598.0 741.0 
430.0 253.0 575.0 552.0 621.0 687.0 
430.0 254.0 618.0 516.0 649.0 606.0 
429.0 255.0 654.0 485.0 677.0 560.0 
429.0 256.0 682.0 462.0 687.0 542.0 
429.0 258.0 700.0 452.0 695.0 534.0 
428.0 259.0 711.0 450.0 698.0 531.0 
428.0 260.0 714.0 450.0 695.0 529.0 
427.0 262.0 712.0 452.0 698.0 526.0 
425.0 264.0 706.0 455.0 698.0 524.0 
424.0 266.0 696.0 457.0 695.0 524.0 
423.0 268.0 686.0 460.0 693.0 524.0 
421.0 271.0 676.0 462.0 690.0 521.0 
420.0 273.0 663.0 465.0 690.0 521.0 
418.0 275.0 649.0 468.0 690.0 521.0 
416.0 278.0 634.0 468.0 687.0 519.0 
413.0 280.0 618.0 470.0 685.0 521.0 
411.0 282.0 601.0 468.0 680.0 519.0 
408.0 284.0 582.0 470.0 680.0 516.0 
406.0 286.0 563.0 473.0 682.0 514.0 
403.0 288.0 543.0 473.0 680.0 516.0 
400.0 291.0 521.0 470.0 680.0 516.0 
398.0 293.0 499.0 468.0 682.0 516.0 
395.0 296.0 477.0 465.0 682.0 519.0 
393.0 299.0 458.0 462.0 685.0 519.0 
390.0 301.0 441.0 465.0 685.0 521.0 
389.0 304.0 423.0 460.0 687.0 524.0 
388.0 307.0 405.0 460.0 687.0 526.0 
389.0 309.0 389.0 462.0 690.0 526.0 
393.0 312.0 375.0 468.0 690.0 529.0 
402.0 315.0 363.0 470.0 693.0 531.0 
415.0 317.0 353.0 473.0 690.0 531.0 
432.0 320.0 345.0 480.0 690.0 531.0 
452.0 323.0 339.0 488.0 690.0 531.0 
473.0 325.0 334.0 496.0 690.0 529.0 
494.0 327.0 330.0 498.0 687.0 531.0 
515.0 328.0 328.0 503.0 682.0 529.0 
534.0 330.0 327.0 508.0 680.0 524.0 
551.0 331.0 325.0 508.0 675.0 524.0 
565.0 332.0 324.0 508.0 672.0 524.0 
576.0 333.0 322.0 508.0 667.0 524.0 
584.0 333.0 320.0 508.0 667.0 524.0 
587.0 333.0 318.0 508.0 667.0 521.0 
587.0 333.0 316.0 508.0 667.0 519.0 
584.0 333.0 313.0 514.0 662.0 508.0 
579.0 332.0 311.0 529.0 675.0 493.0 
572.0 331.0 308.0 544.0 675.0 475.0 
565.0 330.0 305.0 554.0 670.0 473.0 
557.0 329.0 302.0 565.0 647.0 470.0 
550.0 327.0 300.0 562.0 641.0 473.0 
543.0 325.0 298.0 549.0 649.0 483.0 
536.0 323.0 295.0 542.0 654.0 493.0 
530.0 320.0 292.0 529.0 657.0 506.0 
523.0 318.0 289.0 508.0 664.0 521.0 
515.0 316.0 285.0 496.0 667.0 534.0 
507.0 314.0 280.0 488.0 670.0 542.0 
499.0 311.0 276.0 488.0 670.0 544.0 
490.0 309.0 271.0 485.0 670.0 544.0 
481.0 308.0 267.0 488.0 672.0 542.0 
472.0 306.0 263.0 483.0 672.0 544.0 
464.0 305.0 262.0 483.0 670.0 544.0 
457.0 304.0 264.0 485.0 670.0 544.0 
451.0 303.0 272.0 488.0 672.0 542.0 
446.0 302.0 287.0 488.0 682.0 531.0 
441.0 301.0 311.0 519.0 667.0 498.0 
437.0 300.0 345.0 621.0 585.0 411.0 
435.0 299.0 388.0 826.0 491.0 347.0 
432.0 299.0 438.0 1023.0 442.0 345.0 
431.0 299.0 491.0 820.0 554.0 662.0 
429.0 299.0 544.0 601.0 608.0 741.0 
429.0 300.0 593.0 539.0 634.0 652.0 
428.0 301.0 635.0 503.0 659.0 585.0 
428.0 302.0 670.0 475.0 682.0 552.0 
428.0 304.0 695.0 460.0 690.0 534.0 
427.0 306.0 711.0 457.0 695.0 526.0 
426.0 308.0 719.0 460.0 695.0 521.0 
426.0 310.0 722.0 460.0 695.0 521.0 
425.0 313.0 722.0 460.0 695.0 521.0 
424.0 315.0 717.0 460.0 695.0 521.0 
423.0 317.0 708.0 465.0 693.0 516.0 
421.0 319.0 698.0 465.0 690.0 516.0 
420.0 322.0 686.0 465.0 690.0 516.0 
419.0 324.0 672.0 465.0 690.0 519.0 
417.0 327.0 658.0 462.0 687.0 516.0 
415.0 330.0 643.0 470.0 685.0 511.0 
413.0 332.0 627.0 473.0 685.0 508.0 
411.0 334.0 612.0 468.0 682.0 511.0 
409.0 336.0 596.0 470.0 685.0 514.0 
406.0 338.0 579.0 473.0 685.0 508.0 
404.0 340.0 559.0 470.0 687.0 511.0 
401.0 342.0 538.0 473.0 685.0 508.0 
399.0 344.0 516.0 465.0 687.0 511.0 
397.0 347.0 494.0 462.0 685.0 514.0 
394.0 349.0 472.0 460.0 687.0 516.0 
392.0 351.0 451.0 460.0 690.0 516.0 
391.0 354.0 431.0 457.0 690.0 521.0 
390.0 356.0 412.0 460.0 693.0 521.0 
392.0 358.0 396.0 460.0 690.0 521.0 
398.0 360.0 382.0 470.0 690.0 521.0 
409.0 362.0 371.0 473.0 690.0 524.0 
424.0 364.0 364.0 475.0 693.0 526.0 
443.0 365.0 357.0 480.0 695.0 521.0 
462.0 366.0 351.0 493.0 690.0 521.0 
483.0 366.0 346.0 496.0 687.0 519.0 
504.0 366.0 342.0 496.0 685.0 521.0 
524.0 366.0 339.0 501.0 682.0 519.0 
542.0 367.0 337.0 506.0 680.0 516.0 
558.0 366.0 335.0 501.0 677.0 516.0 
570.0 366.0 333.0 508.0 675.0 516.0 
579.0 365.0 331.0 508.0 672.0 514.0 
584.0 364.0 330.0 508.0 672.0 514.0 
585.0 361.0 329.0 508.0 672.0 508.0 
584.0 358.0 328.0 508.0 670.0 506.0 
579.0 354.0 326.0 514.0 667.0 496.0 
572.0 351.0 324.0 537.0 680.0 475.0 
565.0 346.0 321.0 544.0 675.0 462.0 
557.0 341.0 318.0 560.0 664.0 462.0 
549.0 336.0 315.0 565.0 647.0 465.0 
541.0 332.0 313.0 554.0 649.0 473.0 
534.0 327.0 309.0 547.0 654.0 478.0 
527.0 322.0 306.0 534.0 662.0 491.0 
520.0 317.0 303.0 519.0 667.0 506.0 
513.0 311.0 300.0 506.0 667.0 519.0 
505.0 305.0 297.0 491.0 672.0 529.0 
497.0 300.0 294.0 485.0 675.0 531.0 
488.0 294.0 291.0 488.0 670.0 531.0 
479.0 289.0 287.0 491.0 672.0 529.0 
471.0 285.0 283.0 493.0 672.0 529.0 
463.0 281.0 280.0 488.0 675.0 531.0 
456.0 276.0 280.0 485.0 675.0 531.0 
449.0 272.0 284.0 485.0 675.0 531.0 
444.0 268.0 296.0 491.0 677.0 529.0 
439.0 264.0 316.0 488.0 682.0 516.0 
435.0 260.0 346.0 552.0 641.0 460.0 
432.0 257.0 386.0 700.0 547.0 368.0 
430.0 254.0 432.0 946.0 460.0 317.0 
428.0 251.0 477.0 1023.0 427.0 439.0 
427.0 248.0 519.0 718.0 572.0 690.0 
426.0 246.0 565.0 557.0 613.0 721.0 
426.0 244.0 610.0 516.0 644.0 613.0 
426.0 243.0 649.0 491.0 670.0 562.0 
426.0 242.0 681.0 470.0 690.0 537.0 
426.0 241.0 705.0 460.0 693.0 526.0 
426.0 240.0 720.0 460.0 698.0 521.0 
426.0 239.0 728.0 460.0 695.0 519.0 
425.0 238.0 730.0 460.0 698.0 516.0 
425.0 238.0 727.0 462.0 693.0 516.0 
424.0 238.0 719.0 468.0 693.0 514.0 
423.0 238.0 710.0 470.0 690.0 511.0 
422.0 238.0 699.0 473.0 690.0 516.0 
421.0 239.0 686.0 475.0 690.0 511.0 
419.0 240.0 672.0 473.0 687.0 516.0 
418.0 242.0 657.0 473.0 687.0 514.0 
416.0 243.0 641.0 478.0 687.0 511.0 
414.0 245.0 624.0 478.0 685.0 511.0 
412.0 247.0 607.0 478.0 685.0 508.0 
410.0 248.0 588.0 483.0 685.0 508.0 
408.0 250.0 568.0 478.0 682.0 511.0 
406.0 252.0 548.0 478.0 680.0 511.0 
403.0 254.0 526.0 473.0 680.0 514.0 
401.0 256.0 504.0 473.0 682.0 516.0 
399.0 258.0 484.0 465.0 685.0 519.0 
398.0 260.0 466.0 462.0 687.0 521.0 
396.0 263.0 447.0 460.0 690.0 521.0 
396.0 265.0 428.0 457.0 690.0 524.0 
397.0 268.0 411.0 460.0 690.0 526.0 
401.0 270.0 395.0 460.0 693.0 531.0 
409.0 273.0 381.0 468.0 693.0 531.0 
423.0 275.0 370.0 473.0 695.0 534.0 
441.0 278.0 361.0 480.0 690.0 534.0 
461.0 282.0 354.0 483.0 693.0 534.0 
483.0 285.0 349.0 491.0 690.0 534.0 
505.0 289.0 345.0 493.0 690.0 534.0 
527.0 293.0 343.0 503.0 685.0 526.0 
547.0 297.0 343.0 506.0 680.0 526.0 
565.0 300.0 342.0 508.0 677.0 524.0 
580.0 304.0 341.0 511.0 675.0 524.0 
592.0 307.0 340.0 511.0 672.0 524.0 
599.0 310.0 338.0 511.0 670.0 521.0 
602.0 312.0 337.0 514.0 670.0 521.0 
601.0 315.0 335.0 511.0 667.0 519.0 
597.0 316.0 332.0 516.0 664.0 514.0 
590.0 318.0 329.0 526.0 672.0 501.0 
582.0 319.0 326.0 547.0 680.0 483.0 
573.0 320.0 323.0 557.0 677.0 473.0 
564.0 321.0 320.0 567.0 657.0 473.0 
556.0 322.0 317.0 567.0 644.0 473.0 
548.0 323.0 315.0 560.0 649.0 483.0 
541.0 323.0 313.0 552.0 657.0 491.0 
534.0 323.0 309.0 531.0 659.0 503.0 
526.0 323.0 306.0 519.0 664.0 516.0 
519.0 323.0 302.0 501.0 672.0 531.0 
511.0 322.0 298.0 496.0 672.0 537.0 
502.0 322.0 294.0 491.0 672.0 542.0 
494.0 321.0 289.0 493.0 672.0 542.0 
485.0 321.0 285.0 491.0 672.0 544.0 
476.0 320.0 281.0 491.0 675.0 539.0 
468.0 320.0 280.0 491.0 675.0 539.0 
461.0 319.0 282.0 493.0 675.0 539.0 
456.0 318.0 288.0 491.0 677.0 542.0 
451.0 317.0 302.0 491.0 682.0 537.0 
446.0 315.0 326.0 506.0 687.0 514.0 
443.0 314.0 359.0 585.0 626.0 442.0 
440.0 312.0 402.0 769.0 519.0 355.0 
438.0 311.0 452.0 1023.0 421.0 332.0 
436.0 310.0 505.0 974.0 416.0 534.0 
435.0 309.0 559.0 654.0 570.0 731.0 
435.0 307.0 609.0 544.0 616.0 675.0 
435.0 306.0 653.0 514.0 649.0 598.0 
434.0 305.0 688.0 480.0 680.0 562.0 
434.0 303.0 715.0 460.0 693.0 542.0 
435.0 301.0 731.0 447.0 700.0 537.0 
434.0 299.0 739.0 447.0 703.0 534.0 
434.0 296.0 743.0 452.0 703.0 531.0 
433.0 294.0 741.0 455.0 703.0 529.0 
432.0 292.0 736.0 457.0 700.0 526.0 
430.0 290.0 727.0 460.0 703.0 526.0 
429.0 288.0 716.0 460.0 700.0 526.0 
427.0 287.0 703.0 462.0 698.0 524.0 
425.0 285.0 689.0 465.0 698.0 524.0 
423.0 284.0 675.0 465.0 698.0 521.0 
421.0 283.0 660.0 468.0 693.0 521.0 
419.0 282.0 644.0 465.0 693.0 524.0 
416.0 281.0 629.0 468.0 690.0 521.0 
413.0 280.0 615.0 468.0 690.0 521.0 
411.0 280.0 598.0 465.0 690.0 521.0 
408.0 280.0 580.0 462.0 690.0 521.0 
405.0 280.0 561.0 465.0 690.0 521.0 
401.0 281.0 541.0 460.0 690.0 524.0 
398.0 281.0 520.0 460.0 690.0 524.0 
395.0 282.0 500.0 460.0 693.0 524.0 
393.0 283.0 481.0 457.0 693.0 529.0 
390.0 284.0 462.0 457.0 693.0 529.0 
390.0 285.0 445.0 460.0 698.0 531.0 
390.0 286.0 430.0 460.0 698.0 534.0 
395.0 286.0 418.0 465.0 695.0 534.0 
404.0 287.0 408.0 468.0 698.0 534.0 
418.0 287.0 401.0 473.0 700.0 534.0 
436.0 287.0 395.0 483.0 700.0 534.0 
456.0 287.0 390.0 488.0 695.0 531.0 
478.0 288.0 386.0 496.0 693.0 529.0 
500.0 287.0 383.0 498.0 690.0 529.0 
522.0 287.0 381.0 501.0 682.0 529.0 
541.0 286.0 380.0 503.0 680.0 526.0 
559.0 286.0 380.0 508.0 675.0 526.0 
574.0 285.0 379.0 508.0 672.0 526.0 
585.0 284.0 379.0 508.0 670.0 524.0 
592.0 282.0 378.0 506.0 670.0 526.0 
595.0 281.0 377.0 508.0 670.0 524.0 
594.0 279.0 376.0 508.0 670.0 521.0 
590.0 276.0 374.0 511.0 667.0 516.0 
584.0 273.0 371.0 521.0 677.0 506.0 
577.0 270.0 368.0 537.0 682.0 485.0 
569.0 267.0 365.0 544.0 680.0 480.0 
560.0 263.0 361.0 560.0 662.0 475.0 
553.0 260.0 356.0 560.0 652.0 478.0 
545.0 257.0 352.0 552.0 654.0 485.0 
538.0 254.0 347.0 542.0 662.0 496.0 
532.0 251.0 342.0 526.0 664.0 508.0 
525.0 248.0 337.0 508.0 670.0 519.0 
518.0 245.0 332.0 493.0 675.0 537.0 
510.0 243.0 328.0 485.0 677.0 544.0 
501.0 241.0 325.0 483.0 677.0 547.0 
492.0 238.0 320.0 483.0 677.0 549.0 
483.0 236.0 315.0 483.0 677.0 547.0 
474.0 235.0 310.0 483.0 677.0 547.0 
466.0 233.0 307.0 483.0 675.0 549.0 
458.0 232.0 307.0 483.0 675.0 549.0 
452.0 231.0 314.0 483.0 677.0 547.0 
447.0 230.0 329.0 483.0 682.0 542.0 
442.0 230.0 355.0 498.0 687.0 519.0 
439.0 229.0 391.0 572.0 626.0 450.0 
436.0 229.0 437.0 746.0 521.0 363.0 
434.0 229.0 481.0 989.0 445.0 340.0 
432.0 230.0 525.0 1023.0 439.0 549.0 
431.0 230.0 575.0 652.0 590.0 744.0 
430.0 231.0 625.0 547.0 621.0 690.0 
429.0 231.0 669.0 514.0 649.0 608.0 
429.0 232.0 705.0 483.0 680.0 562.0 
429.0 233.0 732.0 460.0 690.0 544.0 
429.0 233.0 750.0 447.0 698.0 537.0 
428.0 234.0 760.0 447.0 698.0 534.0 
428.0 235.0 762.0 450.0 698.0 531.0 
427.0 236.0 759.0 450.0 700.0 529.0 
426.0 238.0 750.0 450.0 698.0 529.0 
425.0 239.0 739.0 455.0 698.0 526.0 
424.0 241.0 726.0 457.0 695.0 524.0 
422.0 242.0 712.0 460.0 693.0 524.0 
421.0 244.0 696.0 462.0 690.0 521.0 
419.0 245.0 679.0 462.0 687.0 521.0 
416.0 247.0 662.0 468.0 685.0 521.0 
414.0 249.0 644.0 470.0 685.0 519.0 
412.0 251.0 625.0 468.0 685.0 519.0 
409.0 253.0 606.0 470.0 685.0 519.0 
406.0 256.0 584.0 473.0 685.0 519.0 
404.0 259.0 562.0 468.0 682.0 519.0 
401.0 263.0 539.0 470.0 680.0 519.0 
398.0 266.0 515.0 465.0 680.0 521.0 
396.0 269.0 493.0 462.0 680.0 521.0 
393.0 272.0 474.0 460.0 682.0 521.0 
391.0 275.0 453.0 460.0 685.0 521.0 
389.0 278.0 432.0 460.0 690.0 524.0 
388.0 281.0 412.0 460.0 690.0 524.0 
388.0 284.0 393.0 460.0 690.0 526.0 
392.0 287.0 377.0 468.0 690.0 529.0 
401.0 290.0 364.0 468.0 693.0 534.0 
414.0 293.0 353.0 473.0 693.0 534.0 
432.0 296.0 343.0 480.0 693.0 534.0 
452.0 298.0 336.0 488.0 690.0 531.0 
473.0 300.0 331.0 493.0 690.0 531.0 
494.0 303.0 328.0 498.0 687.0 529.0 
515.0 304.0 326.0 501.0 685.0 529.0 
535.0 306.0 325.0 503.0 680.0 529.0 
552.0 306.0 324.0 503.0 680.0 526.0 
567.0 307.0 323.0 508.0 675.0 524.0 
578.0 307.0 321.0 508.0 672.0 526.0 
585.0 307.0 319.0 508.0 672.0 524.0 
588.0 307.0 318.0 506.0 670.0 524.0 
588.0 306.0 316.0 503.0 667.0 521.0 
585.0 305.0 313.0 508.0 664.0 514.0 
579.0 305.0 310.0 526.0 675.0 498.0 
572.0 303.0 307.0 539.0 677.0 480.0 
564.0 301.0 304.0 552.0 672.0 478.0 
557.0 299.0 302.0 557.0 652.0 473.0 
550.0 297.0 300.0 557.0 647.0 478.0 
543.0 295.0 297.0 547.0 652.0 488.0 
536.0 292.0 293.0 537.0 659.0 496.0 
530.0 290.0 288.0 521.0 662.0 508.0 
523.0 288.0 284.0 506.0 667.0 521.0 
515.0 286.0 279.0 491.0 672.0 537.0 
507.0 285.0 274.0 485.0 672.0 544.0 
499.0 283.0 269.0 485.0 672.0 544.0 
490.0 282.0 263.0 485.0 672.0 544.0 
481.0 281.0 257.0 483.0 672.0 544.0 
472.0 280.0 253.0 483.0 672.0 544.0 
464.0 279.0 252.0 485.0 672.0 544.0 
457.0 279.0 254.0 483.0 672.0 547.0 
451.0 278.0 260.0 483.0 672.0 547.0 
445.0 277.0 275.0 483.0 682.0 539.0 
441.0 277.0 298.0 514.0 672.0 503.0 
437.0 277.0 333.0 611.0 593.0 424.0 
434.0 277.0 377.0 805.0 498.0 352.0 
432.0 277.0 429.0 1023.0 445.0 347.0 
430.0 277.0 485.0 836.0 549.0 654.0 
429.0 278.0 541.0 606.0 608.0 749.0 
429.0 279.0 594.0 539.0 631.0 657.0 
428.0 279.0 640.0 503.0 659.0 588.0 
428.0 280.0 678.0 473.0 680.0 557.0 
427.0 282.0 703.0 457.0 690.0 542.0 
427.0 283.0 720.0 447.0 695.0 537.0 
426.0 285.0 731.0 447.0 698.0 531.0 
426.0 287.0 736.0 447.0 698.0 529.0 
425.0 290.0 737.0 452.0 695.0 526.0 
424.0 292.0 732.0 455.0 695.0 526.0 
423.0 294.0 725.0 457.0 693.0 526.0 
421.0 296.0 714.0 460.0 690.0 524.0 
420.0 298.0 702.0 460.0 690.0 524.0 
418.0 300.0 688.0 460.0 687.0 524.0 
416.0 302.0 673.0 462.0 685.0 524.0 
414.0 304.0 657.0 462.0 687.0 521.0 
412.0 306.0 642.0 465.0 685.0 521.0 
409.0 308.0 628.0 462.0 682.0 521.0 
406.0 311.0 610.0 468.0 680.0 521.0 
404.0 313.0 591.0 462.0 680.0 521.0 
401.0 316.0 570.0 462.0 680.0 521.0 
398.0 319.0 548.0 460.0 680.0 521.0 
396.0 321.0 525.0 460.0 680.0 521.0 
393.0 324.0 502.0 460.0 680.0 521.0 
390.0 326.0 479.0 455.0 685.0 526.0 
388.0 329.0 456.0 455.0 682.0 531.0 
387.0 332.0 435.0 452.0 685.0 534.0 
386.0 334.0 416.0 457.0 682.0 534.0 
387.0 337.0 399.0 455.0 685.0 537.0 
392.0 340.0 386.0 460.0 685.0 539.0 
402.0 342.0 376.0 460.0 690.0 544.0 
416.0 343.0 366.0 468.0 690.0 544.0 
434.0 345.0 358.0 473.0 690.0 542.0 
454.0 346.0 352.0 480.0 687.0 542.0 
476.0 347.0 347.0 485.0 687.0 539.0 
497.0 348.0 343.0 491.0 680.0 539.0 
518.0 349.0 340.0 493.0 680.0 537.0 
537.0 350.0 338.0 496.0 675.0 534.0 
554.0 350.0 336.0 496.0 672.0 537.0 
567.0 351.0 334.0 498.0 667.0 534.0 
578.0 351.0 332.0 496.0 667.0 534.0 
585.0 351.0 332.0 496.0 667.0 534.0 
587.0 351.0 331.0 501.0 667.0 529.0 
587.0 350.0 329.0 503.0 657.0 521.0 
583.0 350.0 327.0 511.0 664.0 511.0 
577.0 349.0 324.0 531.0 672.0 491.0 
571.0 348.0 321.0 537.0 670.0 483.0 
564.0 346.0 318.0 554.0 652.0 480.0 
557.0 345.0 315.0 557.0 636.0 480.0 
549.0 344.0 311.0 547.0 641.0 485.0 
542.0 342.0 306.0 539.0 647.0 496.0 
536.0 340.0 302.0 526.0 654.0 508.0 
529.0 339.0 297.0 511.0 654.0 519.0 
522.0 337.0 292.0 496.0 664.0 534.0 
514.0 336.0 288.0 483.0 667.0 544.0 
506.0 335.0 285.0 478.0 667.0 549.0 
497.0 334.0 281.0 480.0 664.0 547.0 
488.0 332.0 276.0 478.0 667.0 547.0 
479.0 331.0 271.0 478.0 664.0 549.0 
470.0 330.0 266.0 475.0 667.0 549.0 
463.0 328.0 264.0 478.0 664.0 549.0 
456.0 327.0 266.0 480.0 667.0 549.0 
450.0 326.0 275.0 478.0 670.0 544.0 
445.0 325.0 293.0 485.0 677.0 529.0 
441.0 324.0 321.0 554.0 629.0 460.0 
437.0 323.0 360.0 710.0 524.0 375.0 
435.0 322.0 401.0 959.0 437.0 340.0 
433.0 322.0 443.0 1023.0 416.0 516.0 
431.0 321.0 495.0 680.0 565.0 736.0 
430.0 321.0 549.0 557.0 601.0 739.0 
430.0 321.0 600.0 519.0 634.0 613.0 
430.0 321.0 646.0 480.0 664.0 570.0 
430.0 322.0 684.0 457.0 682.0 549.0 
430.0 322.0 713.0 450.0 690.0 539.0 
429.0 322.0 734.0 447.0 690.0 534.0 
429.0 322.0 746.0 442.0 690.0 534.0 
429.0 323.0 751.0 439.0 693.0 531.0 
428.0 323.0 750.0 447.0 690.0 526.0 
427.0 324.0 745.0 447.0 690.0 529.0 
426.0 325.0 737.0 447.0 690.0 529.0 
425.0 326.0 727.0 447.0 690.0 531.0 
424.0 327.0 715.0 450.0 687.0 526.0 
422.0 328.0 702.0 450.0 690.0 529.0 
421.0 329.0 687.0 457.0 685.0 524.0 
418.0 330.0 671.0 455.0 682.0 526.0 
416.0 332.0 655.0 452.0 682.0 524.0 
413.0 334.0 637.0 452.0 682.0 526.0 
411.0 336.0 618.0 452.0 682.0 524.0 
408.0 339.0 597.0 452.0 682.0 526.0 
406.0 342.0 576.0 452.0 682.0 524.0 
403.0 345.0 553.0 455.0 685.0 524.0 
400.0 349.0 533.0 450.0 687.0 526.0 
398.0 352.0 513.0 442.0 690.0 529.0 
396.0 355.0 492.0 447.0 687.0 531.0 
394.0 358.0 470.0 447.0 690.0 529.0 
392.0 360.0 449.0 447.0 690.0 534.0 
393.0 362.0 430.0 447.0 693.0 537.0 
396.0 365.0 413.0 450.0 693.0 539.0 
404.0 367.0 398.0 457.0 690.0 539.0 
417.0 370.0 385.0 460.0 695.0 537.0 
434.0 372.0 374.0 462.0 693.0 539.0 
453.0 374.0 366.0 473.0 695.0 534.0 
474.0 377.0 359.0 483.0 687.0 534.0 
495.0 378.0 354.0 485.0 685.0 534.0 
516.0 379.0 352.0 488.0 682.0 531.0 
535.0 379.0 350.0 488.0 680.0 534.0 
552.0 380.0 349.0 493.0 675.0 529.0 
566.0 379.0 348.0 491.0 672.0 529.0 
577.0 378.0 348.0 496.0 670.0 526.0 
584.0 375.0 347.0 493.0 672.0 526.0 
586.0 372.0 346.0 498.0 664.0 521.0 
585.0 368.0 345.0 501.0 664.0 521.0 
581.0 365.0 343.0 503.0 664.0 516.0 
575.0 361.0 342.0 516.0 680.0 498.0 
567.0 357.0 340.0 534.0 677.0 480.0 
559.0 352.0 338.0 539.0 680.0 480.0 
550.0 348.0 336.0 549.0 652.0 478.0 
543.0 343.0 335.0 552.0 652.0 480.0 
535.0 337.0 333.0 531.0 654.0 493.0 
528.0 331.0 330.0 537.0 659.0 496.0 
521.0 324.0 328.0 511.0 664.0 511.0 
514.0 318.0 326.0 493.0 672.0 526.0 
507.0 312.0 323.0 480.0 672.0 539.0 
499.0 306.0 320.0 475.0 672.0 544.0 
491.0 301.0 317.0 478.0 670.0 544.0 
482.0 295.0 315.0 475.0 670.0 542.0 
473.0 289.0 312.0 480.0 672.0 542.0 
465.0 284.0 310.0 483.0 672.0 539.0 
457.0 278.0 310.0 483.0 672.0 539.0 
451.0 273.0 312.0 483.0 670.0 542.0 
445.0 268.0 319.0 485.0 672.0 542.0 
440.0 263.0 333.0 485.0 680.0 531.0 
436.0 258.0 356.0 521.0 657.0 491.0 
432.0 254.0 389.0 644.0 577.0 404.0 
430.0 251.0 432.0 877.0 485.0 335.0 
428.0 248.0 481.0 1023.0 437.0 391.0 
427.0 246.0 535.0 800.0 544.0 649.0 
426.0 244.0 589.0 572.0 606.0 726.0 
426.0 242.0 640.0 516.0 634.0 641.0 
426.0 240.0 685.0 485.0 664.0 585.0 
426.0 239.0 721.0 462.0 687.0 554.0 
427.0 238.0 745.0 447.0 695.0 542.0 
427.0 237.0 760.0 445.0 700.0 537.0 
427.0 236.0 770.0 447.0 698.0 534.0 
427.0 236.0 773.0 447.0 700.0 534.0 
427.0 236.0 770.0 450.0 703.0 531.0 
426.0 236.0 763.0 455.0 698.0 531.0 
426.0 237.0 753.0 457.0 695.0 526.0 
425.0 237.0 739.0 460.0 695.0 529.0 
424.0 239.0 723.0 460.0 693.0 529.0 
422.0 240.0 707.0 460.0 690.0 529.0 
421.0 242.0 689.0 460.0 690.0 529.0 
420.0 244.0 671.0 462.0 690.0 529.0 
418.0 246.0 652.0 465.0 687.0 529.0 
415.0 248.0 634.0 465.0 685.0 526.0 
413.0 250.0 617.0 468.0 690.0 529.0 
410.0 252.0 598.0 468.0 687.0 526.0 
407.0 254.0 576.0 465.0 687.0 529.0 
405.0 257.0 554.0 465.0 687.0 526.0 
402.0 259.0 531.0 460.0 690.0 529.0 
399.0 262.0 507.0 460.0 690.0 531.0 
397.0 265.0 483.0 455.0 693.0 534.0 
395.0 267.0 459.0 457.0 693.0 534.0 
393.0 270.0 437.0 452.0 693.0 537.0 
392.0 272.0 417.0 457.0 693.0 537.0 
394.0 275.0 399.0 457.0 693.0 539.0 
399.0 278.0 385.0 460.0 693.0 542.0 
409.0 281.0 374.0 465.0 695.0 544.0 
424.0 284.0 364.0 473.0 698.0 542.0 
442.0 286.0 355.0 480.0 695.0 542.0 
462.0 289.0 348.0 485.0 693.0 539.0 
483.0 292.0 343.0 493.0 690.0 539.0 
504.0 294.0 339.0 496.0 690.0 539.0 
524.0 296.0 336.0 501.0 685.0 539.0 
543.0 297.0 334.0 506.0 682.0 534.0 
559.0 298.0 333.0 506.0 677.0 534.0 
572.0 298.0 333.0 508.0 675.0 534.0 
581.0 298.0 332.0 508.0 670.0 531.0 
587.0 297.0 331.0 508.0 670.0 529.0 
588.0 296.0 332.0 508.0 670.0 526.0 
586.0 295.0 333.0 511.0 667.0 521.0 
582.0 293.0 332.0 519.0 664.0 514.0 
575.0 292.0 331.0 534.0 680.0 496.0 
568.0 290.0 328.0 544.0 680.0 485.0 
560.0 289.0 325.0 560.0 664.0 480.0 
552.0 286.0 323.0 565.0 644.0 483.0 
545.0 284.0 319.0 554.0 649.0 488.0 
538.0 282.0 316.0 547.0 654.0 496.0 
531.0 279.0 311.0 531.0 659.0 508.0 
525.0 276.0 306.0 519.0 667.0 521.0 
518.0 273.0 301.0 501.0 672.0 534.0 
510.0 270.0 297.0 488.0 675.0 544.0 
502.0 267.0 294.0 485.0 672.0 547.0 
494.0 264.0 289.0 485.0 672.0 549.0 
485.0 261.0 283.0 485.0 675.0 549.0 
476.0 258.0 277.0 485.0 672.0 547.0 
468.0 256.0 272.0 483.0 675.0 549.0 
461.0 254.0 269.0 485.0 672.0 549.0 
455.0 252.0 270.0 483.0 672.0 552.0 
450.0 250.0 278.0 483.0 680.0 544.0 
445.0 249.0 295.0 493.0 685.0 524.0 
441.0 248.0 321.0 557.0 641.0 468.0 
438.0 248.0 358.0 721.0 531.0 375.0 
436.0 248.0 402.0 976.0 437.0 340.0 
435.0 248.0 446.0 1023.0 414.0 496.0 
433.0 248.0 488.0 687.0 570.0 731.0 
433.0 249.0 536.0 552.0 608.0 736.0 
432.0 250.0 582.0 516.0 644.0 616.0 
432.0 251.0 623.0 483.0 672.0 570.0 
431.0 252.0 657.0 460.0 690.0 552.0 
431.0 253.0 683.0 447.0 695.0 542.0 
431.0 254.0 700.0 447.0 698.0 539.0 
430.0 255.0 710.0 447.0 698.0 537.0 
429.0 257.0 713.0 447.0 698.0 534.0 
428.0 258.0 711.0 452.0 695.0 531.0 
427.0 260.0 705.0 452.0 698.0 531.0 
425.0 261.0 696.0 455.0 695.0 531.0 
424.0 263.0 686.0 457.0 698.0 531.0 
422.0 264.0 674.0 455.0 693.0 529.0 
420.0 266.0 661.0 460.0 693.0 526.0 
418.0 268.0 647.0 462.0 690.0 526.0 
415.0 269.0 633.0 465.0 690.0 529.0 
413.0 271.0 617.0 462.0 687.0 526.0 
411.0 272.0 601.0 468.0 685.0 526.0 
408.0 273.0 583.0 465.0 682.0 526.0 
405.0 274.0 565.0 462.0 682.0 524.0 
402.0 276.0 545.0 462.0 687.0 524.0 
399.0 278.0 524.0 462.0 687.0 524.0 
396.0 280.0 506.0 460.0 690.0 526.0 
394.0 282.0 489.0 460.0 690.0 524.0 
391.0 284.0 471.0 460.0 690.0 529.0 
389.0 286.0 452.0 457.0 690.0 531.0 
388.0 288.0 434.0 457.0 693.0 534.0 
388.0 290.0 418.0 460.0 695.0 534.0 
391.0 292.0 404.0 460.0 693.0 537.0 
399.0 294.0 392.0 468.0 693.0 534.0 
412.0 296.0 382.0 473.0 698.0 537.0 
429.0 298.0 374.0 480.0 693.0 537.0 
448.0 300.0 368.0 483.0 695.0 534.0 
469.0 301.0 364.0 491.0 690.0 534.0 
491.0 302.0 361.0 493.0 690.0 534.0 
512.0 303.0 359.0 498.0 685.0 534.0 
532.0 304.0 359.0 501.0 680.0 534.0 
550.0 304.0 358.0 508.0 677.0 529.0 
566.0 305.0 357.0 508.0 672.0 529.0 
578.0 304.0 356.0 506.0 670.0 529.0 
586.0 304.0 355.0 508.0 667.0 529.0 
591.0 302.0 353.0 506.0 667.0 529.0 
592.0 301.0 351.0 506.0 667.0 524.0 
589.0 299.0 349.0 508.0 667.0 519.0 
584.0 298.0 346.0 524.0 677.0 501.0 
577.0 296.0 342.0 537.0 680.0 483.0 
570.0 294.0 339.0 552.0 672.0 475.0 
562.0 293.0 337.0 560.0 652.0 478.0 
554.0 291.0 334.0 557.0 647.0 475.0 
547.0 289.0 331.0 547.0 652.0 491.0 
540.0 287.0 328.0 539.0 654.0 498.0 
533.0 285.0 324.0 521.0 662.0 514.0 
526.0 284.0 320.0 506.0 667.0 524.0 
518.0 282.0 315.0 491.0 672.0 539.0 
510.0 280.0 311.0 488.0 672.0 544.0 
501.0 278.0 307.0 485.0 672.0 544.0 
492.0 277.0 302.0 483.0 672.0 544.0 
483.0 276.0 297.0 483.0 675.0 544.0 
474.0 275.0 292.0 485.0 672.0 544.0 
466.0 274.0 288.0 488.0 675.0 544.0 
459.0 274.0 288.0 485.0 675.0 547.0 
452.0 274.0 292.0 485.0 675.0 544.0 
446.0 274.0 302.0 488.0 685.0 537.0 
442.0 274.0 321.0 514.0 675.0 506.0 
438.0 275.0 351.0 611.0 595.0 421.0 
435.0 276.0 390.0 815.0 496.0 350.0 
432.0 277.0 437.0 1023.0 437.0 345.0 
430.0 278.0 490.0 843.0 542.0 647.0 
429.0 279.0 545.0 606.0 603.0 746.0 
428.0 280.0 597.0 539.0 629.0 659.0 
428.0 282.0 644.0 503.0 657.0 588.0 
427.0 283.0 683.0 475.0 680.0 554.0 
427.0 284.0 711.0 457.0 693.0 539.0 
426.0 286.0 730.0 450.0 695.0 534.0 
425.0 287.0 743.0 447.0 698.0 534.0 
425.0 288.0 751.0 447.0 695.0 531.0 
424.0 290.0 753.0 452.0 695.0 526.0 
423.0 290.0 749.0 455.0 695.0 526.0 
421.0 291.0 742.0 455.0 690.0 526.0 
420.0 292.0 732.0 457.0 690.0 524.0 
419.0 293.0 720.0 460.0 690.0 524.0 
417.0 293.0 707.0 462.0 687.0 524.0 
415.0 294.0 692.0 465.0 687.0 521.0 
413.0 294.0 676.0 468.0 685.0 521.0 
412.0 295.0 660.0 468.0 682.0 519.0 
409.0 296.0 643.0 473.0 680.0 519.0 
407.0 297.0 627.0 470.0 680.0 519.0 
405.0 298.0 608.0 470.0 680.0 519.0 
402.0 300.0 588.0 468.0 680.0 519.0 
399.0 301.0 566.0 470.0 680.0 516.0 
397.0 302.0 544.0 468.0 680.0 516.0 
395.0 304.0 521.0 465.0 682.0 519.0 
392.0 306.0 498.0 462.0 682.0 519.0 
390.0 308.0 476.0 465.0 685.0 519.0 
388.0 311.0 455.0 462.0 687.0 521.0 
388.0 313.0 435.0 462.0 690.0 526.0 
389.0 315.0 417.0 468.0 690.0 526.0 
394.0 318.0 404.0 470.0 690.0 529.0 
404.0 320.0 393.0 473.0 690.0 531.0 
419.0 322.0 382.0 480.0 693.0 531.0 
437.0 325.0 373.0 485.0 693.0 531.0 
457.0 328.0 366.0 491.0 690.0 531.0 
478.0 331.0 360.0 496.0 687.0 526.0 
500.0 333.0 356.0 501.0 687.0 526.0 
521.0 335.0 352.0 508.0 680.0 524.0 
539.0 337.0 349.0 508.0 680.0 524.0 
556.0 338.0 347.0 511.0 675.0 521.0 
570.0 339.0 344.0 514.0 675.0 521.0 
580.0 341.0 342.0 514.0 672.0 521.0 
586.0 341.0 339.0 511.0 672.0 519.0 
589.0 342.0 338.0 514.0 667.0 516.0 
587.0 342.0 336.0 516.0 667.0 508.0 
583.0 342.0 334.0 529.0 675.0 496.0 
577.0 340.0 331.0 544.0 680.0 475.0 
571.0 339.0 328.0 554.0 677.0 468.0 
563.0 338.0 325.0 567.0 659.0 468.0 
556.0 337.0 321.0 567.0 644.0 468.0 
548.0 336.0 317.0 557.0 647.0 478.0 
542.0 336.0 313.0 547.0 654.0 485.0 
535.0 334.0 309.0 534.0 657.0 498.0 
528.0 332.0 305.0 519.0 664.0 508.0 
521.0 330.0 300.0 506.0 670.0 526.0 
513.0 328.0 297.0 496.0 675.0 534.0 
505.0 327.0 294.0 496.0 670.0 534.0 
496.0 325.0 290.0 496.0 672.0 537.0 
487.0 323.0 285.0 493.0 672.0 534.0 
478.0 322.0 280.0 493.0 675.0 537.0 
469.0 321.0 275.0 493.0 672.0 534.0 
461.0 321.0 272.0 491.0 675.0 534.0 
455.0 321.0 274.0 496.0 677.0 534.0 
449.0 321.0 281.0 491.0 682.0 531.0 
444.0 321.0 297.0 503.0 687.0 508.0 
439.0 321.0 322.0 580.0 621.0 439.0 
436.0 322.0 358.0 746.0 521.0 358.0 
434.0 323.0 403.0 987.0 455.0 340.0 
432.0 324.0 447.0 1023.0 514.0 565.0 
430.0 325.0 491.0 657.0 603.0 744.0 
429.0 326.0 540.0 557.0 621.0 680.0 
428.0 327.0 589.0 519.0 652.0 598.0 
428.0 329.0 633.0 491.0 677.0 552.0 
428.0 330.0 670.0 468.0 690.0 534.0 
427.0 331.0 699.0 460.0 695.0 524.0 
427.0 333.0 719.0 455.0 700.0 521.0 
426.0 334.0 730.0 460.0 698.0 521.0 
425.0 336.0 735.0 457.0 695.0 521.0 
424.0 337.0 735.0 460.0 695.0 519.0 
423.0 339.0 730.0 462.0 695.0 519.0 
421.0 340.0 722.0 465.0 693.0 516.0 
420.0 341.0 713.0 468.0 690.0 514.0 
418.0 342.0 701.0 465.0 690.0 516.0 
416.0 343.0 688.0 473.0 690.0 514.0 
415.0 345.0 674.0 470.0 690.0 516.0 
413.0 346.0 659.0 473.0 687.0 516.0 
411.0 348.0 644.0 473.0 685.0 514.0 
408.0 350.0 627.0 473.0 682.0 511.0 
406.0 352.0 609.0 473.0 682.0 511.0 
403.0 354.0 590.0 475.0 682.0 508.0 
401.0 355.0 569.0 473.0 682.0 508.0 
398.0 356.0 548.0 470.0 682.0 511.0 
396.0 358.0 525.0 468.0 685.0 516.0 
394.0 359.0 505.0 465.0 687.0 519.0 
392.0 361.0 486.0 462.0 687.0 521.0 
391.0 364.0 466.0 462.0 687.0 521.0 
390.0 366.0 447.0 465.0 690.0 524.0 
391.0 368.0 428.0 468.0 690.0 526.0 
396.0 370.0 412.0 470.0 690.0 526.0 
405.0 372.0 397.0 475.0 693.0 529.0 
419.0 373.0 385.0 483.0 690.0 526.0 
437.0 375.0 375.0 493.0 690.0 524.0 
457.0 376.0 367.0 498.0 690.0 521.0 
478.0 377.0 360.0 498.0 690.0 524.0 
500.0 378.0 355.0 508.0 685.0 521.0 
521.0 378.0 352.0 511.0 682.0 519.0 
541.0 379.0 350.0 514.0 680.0 519.0 
559.0 379.0 348.0 514.0 677.0 519.0 
573.0 379.0 346.0 516.0 667.0 516.0 
584.0 379.0 344.0 516.0 670.0 516.0 
591.0 378.0 341.0 514.0 670.0 516.0 
594.0 378.0 339.0 519.0 667.0 508.0 
594.0 377.0 337.0 514.0 664.0 508.0 
590.0 376.0 334.0 521.0 667.0 496.0 
585.0 374.0 332.0 544.0 680.0 473.0 
577.0 373.0 329.0 554.0 680.0 462.0 
570.0 371.0 325.0 567.0 667.0 460.0 
562.0 370.0 322.0 572.0 652.0 460.0 
555.0 368.0 320.0 567.0 649.0 462.0 
548.0 366.0 317.0 552.0 657.0 475.0 
541.0 365.0 314.0 537.0 662.0 488.0 
534.0 363.0 310.0 521.0 667.0 501.0 
527.0 361.0 306.0 506.0 672.0 514.0 
520.0 359.0 302.0 496.0 675.0 521.0 
511.0 357.0 297.0 491.0 672.0 526.0 
502.0 355.0 293.0 488.0 672.0 529.0 
493.0 353.0 288.0 496.0 672.0 526.0 
484.0 351.0 284.0 493.0 672.0 529.0 
475.0 349.0 280.0 491.0 677.0 529.0 
467.0 348.0 279.0 493.0 680.0 529.0 
460.0 347.0 281.0 491.0 677.0 531.0 
453.0 345.0 288.0 496.0 682.0 524.0 
448.0 344.0 301.0 498.0 690.0 506.0 
443.0 343.0 323.0 560.0 641.0 447.0 
439.0 342.0 354.0 721.0 539.0 355.0 
436.0 342.0 395.0 971.0 450.0 314.0 
433.0 340.0 444.0 1023.0 429.0 468.0 
431.0 339.0 497.0 695.0 583.0 705.0 
429.0 338.0 551.0 560.0 621.0 721.0 
429.0 337.0 602.0 519.0 649.0 598.0 
428.0 336.0 648.0 491.0 680.0 552.0 
427.0 335.0 686.0 468.0 695.0 531.0 
426.0 334.0 715.0 460.0 703.0 521.0 
426.0 333.0 733.0 460.0 705.0 516.0 
426.0 331.0 744.0 457.0 705.0 514.0 
425.0 329.0 750.0 460.0 703.0 508.0 
424.0 327.0 751.0 460.0 705.0 514.0 
423.0 325.0 747.0 462.0 703.0 511.0 
422.0 323.0 741.0 468.0 703.0 508.0 
421.0 320.0 732.0 473.0 700.0 506.0 
420.0 318.0 721.0 473.0 698.0 508.0 
418.0 316.0 708.0 475.0 698.0 506.0 
416.0 313.0 694.0 478.0 695.0 506.0 
414.0 311.0 679.0 473.0 698.0 508.0 
412.0 308.0 664.0 475.0 690.0 506.0 
410.0 305.0 648.0 480.0 690.0 503.0 
408.0 302.0 633.0 473.0 690.0 503.0 
405.0 299.0 615.0 473.0 690.0 506.0 
403.0 296.0 596.0 473.0 690.0 503.0 
400.0 294.0 575.0 470.0 690.0 506.0 
398.0 292.0 553.0 470.0 690.0 508.0 
395.0 290.0 531.0 465.0 695.0 508.0 
393.0 288.0 509.0 462.0 695.0 511.0 
391.0 287.0 486.0 462.0 698.0 516.0 
390.0 285.0 465.0 468.0 698.0 516.0 
390.0 284.0 445.0 470.0 703.0 516.0 
393.0 283.0 428.0 473.0 698.0 516.0 
400.0 283.0 412.0 480.0 700.0 516.0 
412.0 282.0 400.0 483.0 700.0 519.0 
428.0 281.0 390.0 491.0 700.0 521.0 
448.0 280.0 382.0 496.0 695.0 519.0 
468.0 280.0 374.0 501.0 695.0 519.0 
490.0 279.0 368.0 506.0 690.0 516.0 
511.0 278.0 364.0 508.0 690.0 511.0 
531.0 277.0 360.0 516.0 685.0 511.0 
550.0 276.0 358.0 516.0 680.0 508.0 
565.0 274.0 356.0 519.0 677.0 508.0 
577.0 272.0 354.0 521.0 675.0 508.0 
585.0 270.0 353.0 521.0 672.0 508.0 
590.0 267.0 351.0 519.0 672.0 508.0 
590.0 265.0 350.0 519.0 672.0 506.0 
587.0 263.0 348.0 521.0 667.0 501.0 
582.0 261.0 347.0 537.0 680.0 483.0 
574.0 258.0 345.0 549.0 680.0 470.0 
566.0 256.0 343.0 565.0 672.0 465.0 
558.0 254.0 340.0 570.0 654.0 465.0 
551.0 251.0 338.0 567.0 654.0 470.0 
543.0 248.0 335.0 554.0 659.0 480.0 
537.0 246.0 332.0 544.0 667.0 491.0 
530.0 243.0 329.0 529.0 667.0 501.0 
523.0 241.0 326.0 511.0 675.0 519.0 
516.0 239.0 323.0 501.0 677.0 526.0 
509.0 237.0 320.0 496.0 680.0 531.0 
501.0 236.0 317.0 496.0 677.0 534.0 
492.0 235.0 313.0 493.0 680.0 534.0 
484.0 234.0 308.0 493.0 680.0 534.0 
475.0 233.0 303.0 493.0 680.0 537.0 
468.0 233.0 299.0 493.0 680.0 537.0 
461.0 233.0 297.0 493.0 680.0 537.0 
455.0 234.0 300.0 496.0 680.0 534.0 
450.0 234.0 310.0 496.0 690.0 524.0 
446.0 235.0 328.0 542.0 657.0 473.0 
442.0 236.0 357.0 677.0 570.0 386.0 
440.0 237.0 396.0 923.0 478.0 329.0 
438.0 239.0 444.0 1023.0 442.0 421.0 
437.0 240.0 489.0 764.0 560.0 677.0 
436.0 241.0 533.0 570.0 608.0 726.0 
436.0 243.0 581.0 526.0 641.0 624.0 
436.0 244.0 628.0 491.0 672.0 575.0 
436.0 246.0 669.0 470.0 690.0 547.0 
436.0 247.0 702.0 460.0 700.0 534.0 
436.0 249.0 726.0 457.0 705.0 531.0 
435.0 250.0 741.0 460.0 703.0 526.0 
434.0 252.0 748.0 460.0 703.0 521.0 
434.0 253.0 748.0 465.0 703.0 521.0 
433.0 254.0 743.0 468.0 703.0 521.0 
431.0 255.0 734.0 470.0 700.0 519.0 
430.0 256.0 723.0 473.0 703.0 519.0 
428.0 257.0 710.0 473.0 698.0 519.0 
427.0 259.0 695.0 473.0 695.0 519.0 
425.0 260.0 679.0 473.0 693.0 519.0 
422.0 261.0 662.0 473.0 693.0 519.0 
420.0 262.0 645.0 475.0 693.0 516.0 
417.0 262.0 627.0 475.0 690.0 516.0 
414.0 263.0 608.0 478.0 690.0 516.0 
412.0 264.0 588.0 475.0 690.0 516.0 
409.0 264.0 567.0 473.0 690.0 516.0 
406.0 265.0 545.0 470.0 690.0 519.0 
404.0 265.0 523.0 470.0 690.0 519.0 
401.0 266.0 500.0 468.0 690.0 519.0 
398.0 267.0 480.0 465.0 695.0 521.0 
396.0 268.0 461.0 468.0 695.0 521.0 
395.0 269.0 442.0 462.0 698.0 524.0 
394.0 270.0 423.0 465.0 698.0 526.0 
397.0 270.0 405.0 470.0 700.0 529.0 
404.0 271.0 389.0 473.0 700.0 529.0 
415.0 271.0 376.0 478.0 700.0 531.0 
431.0 272.0 365.0 485.0 698.0 529.0 
450.0 272.0 356.0 491.0 700.0 531.0 
471.0 272.0 350.0 496.0 698.0 529.0 
492.0 273.0 345.0 501.0 695.0 526.0 
514.0 273.0 342.0 508.0 693.0 521.0 
534.0 273.0 340.0 508.0 690.0 521.0 
552.0 273.0 339.0 514.0 687.0 519.0 
568.0 273.0 338.0 511.0 682.0 521.0 
580.0 273.0 337.0 516.0 680.0 519.0 
588.0 273.0 335.0 516.0 680.0 519.0 
593.0 273.0 334.0 519.0 680.0 516.0 
594.0 273.0 332.0 519.0 677.0 511.0 
591.0 273.0 330.0 521.0 672.0 503.0 
585.0 272.0 327.0 539.0 682.0 488.0 
578.0 271.0 324.0 552.0 685.0 473.0 
571.0 270.0 321.0 562.0 680.0 473.0 
563.0 269.0 317.0 570.0 657.0 470.0 
555.0 267.0 313.0 567.0 652.0 473.0 
548.0 266.0 310.0 557.0 654.0 483.0 
541.0 264.0 307.0 547.0 662.0 491.0 
535.0 262.0 304.0 531.0 667.0 503.0 
528.0 260.0 300.0 519.0 672.0 519.0 
521.0 258.0 295.0 503.0 677.0 531.0 
513.0 256.0 290.0 496.0 680.0 534.0 
505.0 254.0 286.0 496.0 680.0 537.0 
496.0 252.0 280.0 496.0 677.0 537.0 
487.0 251.0 275.0 493.0 680.0 539.0 
478.0 250.0 270.0 496.0 680.0 539.0 
470.0 249.0 267.0 493.0 680.0 542.0 
463.0 248.0 266.0 496.0 677.0 539.0 
457.0 248.0 269.0 496.0 677.0 539.0 
452.0 247.0 277.0 496.0 687.0 529.0 
447.0 247.0 294.0 529.0 672.0 493.0 
443.0 246.0 321.0 634.0 590.0 409.0 
440.0 246.0 357.0 849.0 491.0 335.0 
437.0 246.0 403.0 1023.0 434.0 386.0 
436.0 246.0 456.0 833.0 544.0 652.0 
434.0 247.0 511.0 603.0 601.0 734.0 
433.0 248.0 565.0 542.0 636.0 641.0 
433.0 249.0 615.0 503.0 667.0 583.0 
432.0 250.0 658.0 478.0 687.0 552.0 
432.0 251.0 693.0 460.0 695.0 531.0 
431.0 252.0 718.0 455.0 703.0 526.0 
431.0 253.0 733.0 452.0 703.0 524.0 
430.0 254.0 740.0 455.0 703.0 524.0 
429.0 254.0 742.0 460.0 703.0 521.0 
428.0 255.0 740.0 460.0 703.0 521.0 
427.0 257.0 734.0 462.0 703.0 521.0 
426.0 258.0 725.0 462.0 700.0 519.0 
424.0 260.0 714.0 468.0 698.0 519.0 
422.0 262.0 701.0 468.0 693.0 516.0 
420.0 264.0 687.0 473.0 695.0 514.0 
418.0 266.0 673.0 473.0 690.0 516.0 
416.0 268.0 657.0 473.0 690.0 514.0 
413.0 270.0 641.0 475.0 690.0 514.0 
411.0 272.0 625.0 473.0 690.0 516.0 
408.0 275.0 610.0 475.0 685.0 514.0 
406.0 278.0 592.0 473.0 687.0 516.0 
403.0 281.0 572.0 473.0 685.0 514.0 
400.0 284.0 551.0 470.0 687.0 516.0 
398.0 287.0 529.0 468.0 690.0 514.0 
395.0 290.0 506.0 465.0 687.0 519.0 
393.0 293.0 484.0 468.0 690.0 519.0 
391.0 296.0 462.0 465.0 693.0 521.0 
391.0 298.0 442.0 468.0 693.0 521.0 
393.0 300.0 424.0 468.0 695.0 524.0 
399.0 302.0 408.0 473.0 698.0 524.0 
410.0 303.0 395.0 478.0 695.0 526.0 
425.0 305.0 384.0 483.0 698.0 524.0 
443.0 306.0 377.0 488.0 695.0 526.0 
464.0 307.0 370.0 493.0 698.0 524.0 
485.0 308.0 364.0 498.0 693.0 524.0 
507.0 308.0 359.0 503.0 690.0 524.0 
527.0 309.0 355.0 506.0 685.0 524.0 
546.0 309.0 353.0 508.0 680.0 524.0 
562.0 310.0 351.0 508.0 680.0 521.0 
575.0 310.0 348.0 508.0 675.0 521.0 
585.0 311.0 346.0 511.0 672.0 519.0 
591.0 311.0 344.0 514.0 675.0 516.0 
593.0 310.0 342.0 516.0 670.0 514.0 
591.0 310.0 340.0 516.0 667.0 508.0 
586.0 309.0 338.0 529.0 677.0 493.0 
580.0 309.0 336.0 544.0 682.0 475.0 
572.0 308.0 333.0 554.0 677.0 473.0 
565.0 307.0 329.0 567.0 657.0 468.0 
557.0 306.0 326.0 567.0 649.0 470.0 
550.0 304.0 322.0 554.0 654.0 483.0 
543.0 303.0 317.0 547.0 662.0 488.0 
536.0 302.0 313.0 531.0 667.0 503.0 
530.0 301.0 309.0 516.0 672.0 519.0 
523.0 300.0 304.0 501.0 680.0 531.0 
515.0 299.0 299.0 496.0 680.0 537.0 
507.0 298.0 294.0 493.0 680.0 539.0 
498.0 297.0 290.0 491.0 680.0 537.0 
489.0 296.0 287.0 493.0 680.0 537.0 
480.0 295.0 282.0 488.0 675.0 539.0 
472.0 294.0 278.0 491.0 677.0 539.0 
464.0 293.0 276.0 491.0 677.0 542.0 
458.0 292.0 277.0 491.0 677.0 542.0 
452.0 292.0 285.0 488.0 687.0 534.0 
447.0 291.0 301.0 511.0 677.0 506.0 
443.0 292.0 327.0 595.0 611.0 429.0 
439.0 292.0 363.0 785.0 511.0 352.0 
437.0 292.0 408.0 1020.0 447.0 342.0 
435.0 292.0 460.0 1023.0 534.0 606.0 
433.0 292.0 507.0 631.0 611.0 746.0 
432.0 293.0 551.0 549.0 631.0 664.0 
431.0 294.0 598.0 508.0 662.0 593.0 
431.0 295.0 642.0 480.0 685.0 557.0 
430.0 296.0 679.0 460.0 695.0 537.0 
429.0 298.0 708.0 452.0 700.0 531.0 
429.0 300.0 728.0 450.0 703.0 529.0 
428.0 301.0 739.0 455.0 703.0 526.0 
428.0 303.0 744.0 455.0 700.0 524.0 
427.0 305.0 742.0 457.0 700.0 524.0 
426.0 307.0 736.0 460.0 700.0 521.0 
424.0 308.0 727.0 460.0 695.0 519.0 
423.0 310.0 715.0 462.0 693.0 519.0 
421.0 312.0 702.0 465.0 695.0 519.0 
420.0 314.0 689.0 468.0 693.0 516.0 
418.0 317.0 675.0 470.0 690.0 516.0 
416.0 319.0 660.0 468.0 687.0 516.0 
414.0 322.0 644.0 470.0 687.0 516.0 
411.0 324.0 627.0 473.0 687.0 514.0 
409.0 327.0 609.0 470.0 682.0 516.0 
406.0 329.0 589.0 473.0 682.0 514.0 
404.0 331.0 568.0 473.0 685.0 516.0 
401.0 334.0 545.0 468.0 682.0 516.0 
398.0 337.0 523.0 468.0 685.0 519.0 
396.0 339.0 499.0 465.0 685.0 519.0 
394.0 342.0 479.0 462.0 687.0 521.0 
392.0 345.0 461.0 462.0 687.0 521.0 
391.0 348.0 441.0 462.0 690.0 524.0 
392.0 350.0 423.0 468.0 690.0 526.0 
397.0 353.0 405.0 468.0 690.0 529.0 
407.0 355.0 390.0 473.0 690.0 529.0 
421.0 357.0 377.0 475.0 690.0 529.0 
438.0 359.0 366.0 483.0 690.0 529.0 
458.0 361.0 357.0 491.0 693.0 526.0 
478.0 363.0 350.0 496.0 690.0 526.0 
499.0 365.0 344.0 501.0 687.0 524.0 
520.0 366.0 339.0 506.0 682.0 524.0 
539.0 367.0 336.0 508.0 680.0 521.0 
556.0 368.0 334.0 511.0 675.0 521.0 
570.0 369.0 332.0 514.0 670.0 519.0 
580.0 369.0 331.0 519.0 667.0 519.0 
587.0 370.0 329.0 514.0 667.0 519.0 
590.0 369.0 327.0 511.0 667.0 514.0 
589.0 369.0 325.0 516.0 662.0 506.0 
585.0 367.0 323.0 529.0 672.0 491.0 
580.0 366.0 320.0 539.0 680.0 475.0 
573.0 365.0 317.0 552.0 672.0 470.0 
565.0 364.0 314.0 562.0 652.0 468.0 
558.0 362.0 311.0 560.0 647.0 468.0 
550.0 361.0 308.0 547.0 652.0 483.0 
543.0 360.0 305.0 539.0 657.0 488.0 
536.0 358.0 303.0 524.0 662.0 498.0 
530.0 356.0 300.0 508.0 670.0 514.0 
522.0 353.0 296.0 496.0 672.0 524.0 
515.0 351.0 292.0 483.0 677.0 534.0 
506.0 349.0 287.0 485.0 672.0 534.0 
497.0 347.0 282.0 483.0 675.0 534.0 
488.0 345.0 277.0 480.0 677.0 537.0 
479.0 343.0 271.0 483.0 675.0 537.0 
470.0 341.0 267.0 485.0 675.0 534.0 
463.0 340.0 264.0 483.0 677.0 537.0 
456.0 338.0 265.0 485.0 677.0 534.0 
451.0 337.0 271.0 483.0 685.0 529.0 
446.0 336.0 282.0 501.0 677.0 501.0 
442.0 335.0 303.0 588.0 613.0 424.0 
438.0 334.0 333.0 782.0 511.0 345.0 
436.0 333.0 374.0 1020.0 442.0 332.0 
433.0 332.0 423.0 1023.0 526.0 585.0 
431.0 330.0 476.0 626.0 611.0 736.0 
430.0 329.0 531.0 547.0 631.0 657.0 
429.0 328.0 584.0 503.0 659.0 585.0 
428.0 327.0 630.0 478.0 687.0 547.0 
428.0 326.0 669.0 460.0 690.0 526.0 
427.0 325.0 700.0 447.0 700.0 521.0 
426.0 324.0 721.0 450.0 700.0 519.0 
425.0 322.0 733.0 452.0 703.0 519.0 
424.0 321.0 740.0 450.0 700.0 519.0 
423.0 319.0 744.0 452.0 703.0 519.0 
422.0 318.0 741.0 455.0 700.0 516.0 
420.0 316.0 735.0 460.0 700.0 514.0 
419.0 315.0 725.0 465.0 698.0 508.0 
417.0 313.0 713.0 460.0 693.0 511.0 
415.0 310.0 699.0 462.0 690.0 514.0 
413.0 308.0 683.0 465.0 690.0 511.0 
411.0 305.0 667.0 473.0 687.0 508.0 
409.0 303.0 650.0 470.0 687.0 508.0 
407.0 300.0 632.0 468.0 690.0 508.0 
404.0 298.0 614.0 470.0 685.0 508.0 
402.0 295.0 597.0 465.0 685.0 508.0 
399.0 293.0 576.0 470.0 685.0 508.0 
397.0 291.0 554.0 468.0 687.0 508.0 
394.0 288.0 530.0 462.0 690.0 511.0 
392.0 286.0 506.0 465.0 690.0 511.0 
390.0 284.0 482.0 460.0 690.0 514.0 
388.0 282.0 459.0 460.0 690.0 521.0 
387.0 279.0 438.0 460.0 690.0 521.0 
387.0 277.0 413.0 465.0 693.0 521.0 
391.0 275.0 393.0 470.0 693.0 521.0 
399.0 273.0 380.0 473.0 695.0 521.0 
412.0 272.0 367.0 483.0 695.0 521.0 
429.0 270.0 358.0 488.0 695.0 521.0 
448.0 269.0 350.0 496.0 693.0 521.0 
468.0 267.0 343.0 498.0 690.0 519.0 
489.0 265.0 337.0 506.0 685.0 516.0 
510.0 262.0 332.0 508.0 685.0 516.0 
530.0 260.0 328.0 508.0 680.0 514.0 
547.0 258.0 324.0 508.0 680.0 511.0 
562.0 256.0 322.0 516.0 672.0 511.0 
574.0 253.0 319.0 514.0 672.0 511.0 
582.0 251.0 316.0 516.0 667.0 514.0 
585.0 249.0 314.0 514.0 670.0 511.0 
586.0 246.0 311.0 519.0 664.0 506.0 
583.0 244.0 309.0 531.0 672.0 493.0 
577.0 241.0 308.0 547.0 677.0 478.0 
571.0 238.0 305.0 557.0 680.0 468.0 
564.0 235.0 302.0 572.0 657.0 465.0 
556.0 232.0 299.0 570.0 647.0 465.0 
549.0 230.0 295.0 562.0 649.0 473.0 
542.0 227.0 291.0 552.0 654.0 483.0 
536.0 225.0 287.0 537.0 662.0 496.0 
529.0 222.0 283.0 521.0 664.0 508.0 
523.0 220.0 279.0 506.0 667.0 521.0 
515.0 218.0 275.0 501.0 667.0 529.0 
508.0 216.0 271.0 496.0 667.0 534.0 
499.0 214.0 266.0 496.0 667.0 534.0 
491.0 213.0 262.0 496.0 667.0 534.0 
482.0 212.0 259.0 496.0 667.0 534.0 
475.0 211.0 256.0 496.0 667.0 537.0 
468.0 210.0 252.0 496.0 667.0 534.0 
461.0 210.0 252.0 496.0 670.0 534.0 
456.0 210.0 256.0 496.0 677.0 529.0 
452.0 211.0 267.0 514.0 680.0 501.0 
448.0 212.0 288.0 598.0 611.0 427.0 
445.0 214.0 318.0 795.0 511.0 347.0 
444.0 216.0 359.0 1023.0 429.0 327.0 
442.0 219.0 409.0 941.0 483.0 549.0 
442.0 222.0 464.0 639.0 580.0 721.0 
442.0 225.0 513.0 539.0 616.0 664.0 
442.0 228.0 558.0 506.0 649.0 595.0 
442.0 232.0 605.0 478.0 677.0 557.0 
443.0 235.0 647.0 462.0 690.0 537.0 
443.0 238.0 683.0 457.0 698.0 529.0 
443.0 241.0 709.0 460.0 700.0 524.0 
443.0 245.0 727.0 460.0 698.0 524.0 
443.0 249.0 737.0 460.0 700.0 524.0 
442.0 253.0 740.0 460.0 698.0 521.0 
441.0 256.0 738.0 462.0 698.0 521.0 
440.0 260.0 731.0 468.0 695.0 521.0 
438.0 263.0 721.0 465.0 695.0 519.0 
436.0 267.0 708.0 473.0 693.0 519.0 
434.0 270.0 695.0 473.0 693.0 519.0 
432.0 273.0 682.0 473.0 690.0 519.0 
429.0 277.0 667.0 473.0 690.0 519.0 
427.0 281.0 651.0 473.0 690.0 519.0 
424.0 285.0 634.0 470.0 690.0 519.0 
421.0 289.0 616.0 473.0 687.0 519.0 
418.0 293.0 597.0 468.0 690.0 521.0 
415.0 297.0 577.0 468.0 685.0 519.0 
413.0 301.0 556.0 462.0 687.0 521.0 
409.0 304.0 533.0 460.0 687.0 521.0 
407.0 307.0 511.0 460.0 690.0 524.0 
404.0 310.0 488.0 460.0 693.0 524.0 
402.0 312.0 469.0 455.0 695.0 529.0 
401.0 315.0 452.0 460.0 695.0 531.0 
403.0 318.0 435.0 460.0 695.0 534.0 
408.0 321.0 419.0 462.0 700.0 534.0 
419.0 324.0 405.0 468.0 700.0 539.0 
434.0 327.0 393.0 473.0 700.0 539.0 
452.0 329.0 383.0 480.0 700.0 537.0 
473.0 332.0 376.0 488.0 698.0 534.0 
494.0 334.0 371.0 496.0 693.0 531.0 
516.0 336.0 368.0 501.0 690.0 529.0 
537.0 337.0 366.0 506.0 687.0 529.0 
556.0 338.0 365.0 508.0 682.0 529.0 
573.0 339.0 365.0 508.0 680.0 526.0 
586.0 340.0 365.0 508.0 677.0 529.0 
595.0 339.0 365.0 508.0 675.0 526.0 
600.0 339.0 365.0 508.0 675.0 524.0 
601.0 338.0 365.0 511.0 672.0 521.0 
599.0 337.0 364.0 511.0 672.0 521.0 
594.0 335.0 362.0 516.0 667.0 511.0 
587.0 334.0 359.0 534.0 680.0 496.0 
579.0 331.0 357.0 547.0 682.0 480.0 
571.0 329.0 354.0 557.0 672.0 478.0 
563.0 326.0 351.0 565.0 652.0 475.0 
555.0 323.0 347.0 557.0 649.0 483.0 
548.0 321.0 344.0 549.0 654.0 493.0 
541.0 318.0 341.0 537.0 659.0 503.0 
534.0 316.0 339.0 521.0 664.0 514.0 
527.0 313.0 336.0 506.0 672.0 529.0 
519.0 310.0 332.0 493.0 675.0 539.0 
511.0 308.0 328.0 491.0 675.0 542.0 
502.0 304.0 324.0 491.0 677.0 544.0 
493.0 301.0 319.0 488.0 675.0 544.0 
484.0 298.0 315.0 488.0 672.0 544.0 
476.0 295.0 311.0 488.0 672.0 544.0 
469.0 293.0 309.0 485.0 675.0 544.0 
462.0 290.0 312.0 485.0 672.0 544.0 
457.0 288.0 322.0 485.0 680.0 544.0 
452.0 286.0 340.0 491.0 687.0 531.0 
448.0 284.0 363.0 534.0 662.0 485.0 
445.0 282.0 392.0 670.0 567.0 393.0 
442.0 281.0 434.0 915.0 462.0 332.0 
440.0 279.0 484.0 1023.0 421.0 419.0 
439.0 277.0 540.0 757.0 549.0 695.0 
438.0 275.0 596.0 575.0 601.0 736.0 
437.0 274.0 649.0 529.0 636.0 631.0 
437.0 273.0 696.0 493.0 670.0 575.0 
437.0 271.0 734.0 470.0 690.0 552.0 
437.0 270.0 763.0 455.0 698.0 537.0 
436.0 270.0 783.0 450.0 703.0 534.0 
435.0 270.0 795.0 450.0 703.0 534.0 
435.0 270.0 799.0 450.0 703.0 531.0 
433.0 270.0 797.0 452.0 700.0 529.0 
432.0 270.0 792.0 452.0 700.0 529.0 
430.0 270.0 783.0 457.0 698.0 526.0 
429.0 270.0 772.0 460.0 695.0 526.0 
427.0 270.0 759.0 460.0 693.0 524.0 
425.0 270.0 744.0 462.0 693.0 521.0 
423.0 270.0 728.0 468.0 695.0 521.0 
421.0 270.0 712.0 468.0 690.0 519.0 
418.0 270.0 694.0 470.0 690.0 519.0 
416.0 271.0 676.0 468.0 687.0 516.0 
413.0 272.0 656.0 468.0 687.0 519.0 
411.0 274.0 632.0 470.0 687.0 519.0 
408.0 275.0 611.0 465.0 687.0 519.0 
405.0 277.0 594.0 468.0 690.0 519.0 
402.0 278.0 573.0 462.0 690.0 519.0 
399.0 279.0 550.0 460.0 690.0 521.0 
397.0 280.0 527.0 457.0 690.0 521.0 
395.0 282.0 505.0 460.0 693.0 521.0 
393.0 283.0 483.0 460.0 695.0 524.0 
393.0 285.0 463.0 462.0 693.0 524.0 
396.0 287.0 445.0 468.0 695.0 526.0 
403.0 289.0 429.0 473.0 695.0 526.0 
415.0 291.0 416.0 475.0 693.0 526.0 
432.0 292.0 404.0 493.0 695.0 519.0 
452.0 293.0 396.0 503.0 698.0 511.0 
473.0 294.0 390.0 514.0 695.0 508.0 
495.0 295.0 384.0 519.0 693.0 508.0 
516.0 296.0 380.0 524.0 687.0 508.0 
537.0 296.0 376.0 524.0 685.0 508.0 
556.0 296.0 373.0 524.0 680.0 508.0 
572.0 297.0 370.0 524.0 680.0 508.0 
584.0 296.0 367.0 524.0 675.0 506.0 
593.0 296.0 364.0 524.0 672.0 506.0 
597.0 295.0 361.0 521.0 675.0 506.0 
598.0 294.0 357.0 521.0 672.0 506.0 
594.0 293.0 353.0 524.0 667.0 498.0 
589.0 292.0 349.0 534.0 677.0 488.0 
582.0 290.0 345.0 549.0 685.0 468.0 
574.0 288.0 342.0 560.0 680.0 460.0 
566.0 286.0 338.0 572.0 664.0 460.0 
558.0 283.0 334.0 575.0 652.0 460.0 
551.0 281.0 329.0 565.0 654.0 473.0 
544.0 279.0 324.0 554.0 662.0 480.0 
537.0 277.0 319.0 537.0 667.0 496.0 
530.0 274.0 314.0 521.0 670.0 508.0 
523.0 273.0 308.0 503.0 677.0 526.0 
515.0 271.0 303.0 496.0 677.0 531.0 
507.0 269.0 297.0 496.0 677.0 534.0 
498.0 268.0 290.0 493.0 675.0 534.0 
489.0 267.0 286.0 496.0 677.0 537.0 
480.0 266.0 282.0 496.0 675.0 534.0 
472.0 265.0 277.0 493.0 677.0 537.0 
465.0 264.0 275.0 493.0 677.0 537.0 
458.0 264.0 276.0 493.0 677.0 537.0 
452.0 263.0 284.0 491.0 682.0 531.0 
448.0 263.0 300.0 503.0 687.0 508.0 
444.0 262.0 327.0 577.0 626.0 439.0 
441.0 262.0 365.0 751.0 524.0 358.0 
439.0 262.0 412.0 989.0 455.0 337.0 
437.0 263.0 466.0 1023.0 511.0 554.0 
436.0 263.0 522.0 659.0 606.0 739.0 
435.0 264.0 577.0 557.0 624.0 680.0 
434.0 265.0 622.0 519.0 652.0 598.0 
434.0 266.0 657.0 485.0 677.0 557.0 
434.0 267.0 689.0 465.0 690.0 539.0 
433.0 268.0 715.0 455.0 695.0 531.0 
432.0 270.0 732.0 452.0 700.0 526.0 
432.0 271.0 742.0 457.0 698.0 524.0 
431.0 273.0 744.0 455.0 700.0 524.0 
430.0 274.0 741.0 460.0 695.0 521.0 
428.0 276.0 733.0 460.0 695.0 521.0 
427.0 277.0 722.0 462.0 693.0 521.0 
425.0 279.0 709.0 465.0 693.0 521.0 
423.0 281.0 695.0 468.0 690.0 519.0 
421.0 282.0 681.0 465.0 690.0 521.0 
420.0 284.0 666.0 470.0 687.0 519.0 
417.0 286.0 651.0 470.0 685.0 521.0 
415.0 288.0 634.0 470.0 680.0 516.0 
413.0 290.0 615.0 473.0 680.0 516.0 
410.0 293.0 596.0 470.0 680.0 516.0 
407.0 295.0 575.0 468.0 677.0 516.0 
405.0 298.0 552.0 470.0 680.0 516.0 
402.0 301.0 529.0 468.0 680.0 516.0 
399.0 304.0 505.0 465.0 680.0 521.0 
397.0 307.0 481.0 462.0 680.0 519.0 
395.0 310.0 458.0 460.0 682.0 521.0 
393.0 312.0 438.0 460.0 680.0 521.0 
392.0 314.0 421.0 460.0 685.0 524.0 
392.0 316.0 403.0 462.0 685.0 529.0 
397.0 318.0 386.0 465.0 687.0 531.0 
405.0 319.0 371.0 473.0 687.0 531.0 
418.0 321.0 358.0 478.0 690.0 534.0 
435.0 323.0 348.0 483.0 690.0 531.0 
454.0 324.0 339.0 488.0 690.0 534.0 
475.0 326.0 333.0 493.0 687.0 531.0 
496.0 326.0 328.0 498.0 685.0 529.0 
517.0 327.0 324.0 503.0 680.0 529.0 
537.0 328.0 321.0 503.0 680.0 529.0 
554.0 328.0 318.0 508.0 675.0 524.0 
569.0 327.0 317.0 506.0 672.0 526.0 
580.0 327.0 316.0 508.0 670.0 524.0 
588.0 326.0 314.0 506.0 667.0 524.0 
591.0 326.0 312.0 508.0 667.0 521.0 
591.0 325.0 310.0 508.0 662.0 519.0 
587.0 324.0 308.0 519.0 664.0 506.0 
581.0 322.0 305.0 537.0 675.0 488.0 
574.0 321.0 303.0 544.0 677.0 473.0 
567.0 320.0 300.0 557.0 664.0 473.0 
559.0 318.0 296.0 565.0 641.0 470.0 
552.0 316.0 293.0 557.0 641.0 478.0 
544.0 315.0 289.0 544.0 652.0 488.0 
538.0 313.0 287.0 531.0 654.0 501.0 
531.0 311.0 284.0 516.0 662.0 514.0 
523.0 310.0 281.0 501.0 667.0 529.0 
516.0 309.0 277.0 491.0 670.0 537.0 
508.0 307.0 273.0 485.0 667.0 539.0 
499.0 306.0 269.0 483.0 667.0 542.0 
490.0 305.0 264.0 483.0 667.0 544.0 
481.0 305.0 259.0 483.0 670.0 544.0 
473.0 304.0 256.0 483.0 672.0 544.0 
465.0 303.0 255.0 483.0 672.0 544.0 
459.0 303.0 256.0 483.0 670.0 544.0 
452.0 302.0 261.0 483.0 677.0 544.0 
447.0 302.0 273.0 485.0 682.0 529.0 
443.0 301.0 289.0 534.0 649.0 478.0 
440.0 301.0 312.0 670.0 549.0 386.0 
437.0 302.0 345.0 895.0 473.0 347.0 
435.0 302.0 388.0 1020.0 447.0 465.0 
433.0 303.0 437.0 728.0 590.0 723.0 
432.0 303.0 489.0 570.0 616.0 749.0 
431.0 304.0 539.0 526.0 641.0 624.0 
431.0 305.0 586.0 496.0 667.0 570.0 
430.0 306.0 626.0 473.0 685.0 544.0 
430.0 307.0 657.0 460.0 690.0 531.0 
429.0 308.0 680.0 455.0 690.0 526.0 
429.0 308.0 695.0 452.0 693.0 521.0 
428.0 309.0 702.0 452.0 695.0 521.0 
427.0 310.0 703.0 455.0 690.0 521.0 
426.0 311.0 701.0 457.0 690.0 521.0 
425.0 312.0 692.0 455.0 693.0 521.0 
423.0 313.0 681.0 460.0 690.0 521.0 
422.0 314.0 673.0 460.0 687.0 519.0 
420.0 315.0 662.0 462.0 682.0 519.0 
418.0 317.0 649.0 460.0 685.0 521.0 
416.0 318.0 635.0 457.0 685.0 521.0 
414.0 320.0 620.0 455.0 680.0 521.0 
412.0 322.0 604.0 465.0 680.0 516.0 
409.0 324.0 587.0 468.0 680.0 514.0 
407.0 327.0 569.0 470.0 677.0 511.0 
404.0 329.0 551.0 462.0 680.0 516.0 
402.0 331.0 534.0 460.0 682.0 519.0 
399.0 333.0 515.0 457.0 685.0 521.0 
397.0 336.0 494.0 460.0 680.0 519.0 
394.0 338.0 473.0 457.0 682.0 521.0 
392.0 340.0 452.0 452.0 682.0 526.0 
391.0 342.0 432.0 455.0 685.0 524.0 
391.0 344.0 413.0 462.0 687.0 524.0 
393.0 346.0 396.0 455.0 690.0 531.0 
400.0 348.0 381.0 460.0 690.0 534.0 
411.0 349.0 369.0 468.0 690.0 531.0 
426.0 351.0 358.0 475.0 693.0 526.0 
445.0 352.0 351.0 478.0 690.0 529.0 
464.0 353.0 345.0 488.0 690.0 524.0 
484.0 353.0 341.0 491.0 687.0 524.0 
505.0 353.0 337.0 491.0 685.0 521.0 
524.0 353.0 333.0 496.0 680.0 521.0 
542.0 353.0 331.0 501.0 677.0 519.0 
557.0 352.0 329.0 501.0 672.0 521.0 
568.0 351.0 327.0 503.0 672.0 519.0 
577.0 348.0 325.0 498.0 667.0 519.0 
581.0 345.0 323.0 496.0 670.0 521.0 
582.0 342.0 320.0 501.0 667.0 516.0 
580.0 338.0 318.0 508.0 664.0 508.0 
576.0 333.0 316.0 524.0 675.0 491.0 
570.0 329.0 314.0 534.0 677.0 473.0 
562.0 324.0 313.0 552.0 670.0 468.0 
555.0 319.0 311.0 557.0 649.0 468.0 
547.0 313.0 308.0 557.0 644.0 470.0 
540.0 306.0 305.0 544.0 652.0 478.0 
533.0 298.0 302.0 542.0 654.0 485.0 
526.0 291.0 298.0 519.0 664.0 503.0 
519.0 283.0 294.0 506.0 670.0 516.0 
511.0 275.0 290.0 491.0 672.0 531.0 
503.0 268.0 286.0 480.0 675.0 537.0 
495.0 260.0 282.0 483.0 675.0 537.0 
486.0 254.0 278.0 491.0 675.0 531.0 
477.0 247.0 275.0 491.0 672.0 531.0 
469.0 241.0 272.0 485.0 675.0 534.0 
461.0 236.0 269.0 483.0 675.0 534.0 
454.0 230.0 267.0 488.0 675.0 534.0 
448.0 225.0 268.0 485.0 672.0 537.0 
443.0 221.0 275.0 483.0 680.0 529.0 
438.0 216.0 288.0 511.0 664.0 496.0 
435.0 213.0 311.0 616.0 590.0 411.0 
432.0 209.0 343.0 820.0 498.0 340.0 
430.0 206.0 384.0 1023.0 439.0 329.0 
428.0 203.0 431.0 851.0 534.0 616.0 
428.0 201.0 481.0 601.0 608.0 731.0 
427.0 199.0 531.0 526.0 634.0 652.0 
427.0 198.0 572.0 493.0 659.0 585.0 
427.0 196.0 605.0 473.0 680.0 549.0 
427.0 196.0 636.0 457.0 690.0 531.0 
427.0 196.0 662.0 455.0 693.0 524.0 
427.0 196.0 681.0 452.0 695.0 521.0 
427.0 197.0 692.0 457.0 695.0 519.0 
426.0 197.0 697.0 460.0 695.0 519.0 
426.0 198.0 697.0 462.0 690.0 516.0 
425.0 198.0 693.0 460.0 690.0 519.0 
424.0 199.0 685.0 468.0 687.0 516.0 
424.0 200.0 674.0 473.0 690.0 514.0 
422.0 201.0 662.0 473.0 685.0 516.0 
421.0 203.0 650.0 473.0 685.0 514.0 
420.0 204.0 637.0 470.0 682.0 519.0 
418.0 206.0 623.0 470.0 680.0 516.0 
415.0 208.0 607.0 473.0 682.0 519.0 
413.0 210.0 590.0 473.0 680.0 516.0 
411.0 212.0 572.0 473.0 680.0 514.0 
409.0 214.0 553.0 473.0 677.0 514.0 
406.0 216.0 533.0 468.0 680.0 516.0 
404.0 218.0 512.0 465.0 680.0 514.0 
402.0 220.0 490.0 462.0 680.0 521.0 
400.0 222.0 468.0 460.0 680.0 521.0 
398.0 225.0 447.0 457.0 680.0 524.0 
397.0 228.0 426.0 460.0 682.0 526.0 
397.0 231.0 409.0 460.0 687.0 529.0 
398.0 234.0 395.0 457.0 690.0 534.0 
405.0 236.0 381.0 460.0 690.0 531.0 
415.0 239.0 368.0 470.0 690.0 529.0 
430.0 242.0 356.0 475.0 690.0 531.0 
448.0 244.0 347.0 483.0 687.0 534.0 
469.0 247.0 339.0 485.0 690.0 531.0 
491.0 250.0 334.0 496.0 685.0 534.0 
513.0 253.0 330.0 501.0 682.0 529.0 
534.0 256.0 327.0 508.0 680.0 526.0 
553.0 258.0 326.0 511.0 677.0 521.0 
569.0 260.0 325.0 511.0 675.0 521.0 
583.0 262.0 324.0 511.0 670.0 521.0 
592.0 263.0 325.0 514.0 667.0 521.0 
598.0 265.0 324.0 514.0 667.0 521.0 
600.0 266.0 324.0 516.0 667.0 519.0 
597.0 267.0 323.0 516.0 664.0 514.0 
593.0 267.0 321.0 524.0 662.0 506.0 
586.0 268.0 320.0 542.0 675.0 485.0 
578.0 269.0 317.0 554.0 677.0 475.0 
570.0 269.0 315.0 567.0 657.0 473.0 
562.0 269.0 312.0 570.0 641.0 473.0 
554.0 269.0 310.0 562.0 644.0 475.0 
546.0 269.0 306.0 557.0 654.0 485.0 
540.0 268.0 303.0 542.0 654.0 498.0 
533.0 268.0 300.0 521.0 664.0 511.0 
526.0 267.0 298.0 506.0 667.0 526.0 
518.0 267.0 295.0 496.0 670.0 534.0 
510.0 267.0 291.0 496.0 672.0 537.0 
502.0 267.0 287.0 493.0 672.0 539.0 
493.0 266.0 282.0 496.0 670.0 539.0 
484.0 266.0 278.0 491.0 670.0 539.0 
476.0 266.0 274.0 491.0 672.0 542.0 
469.0 266.0 272.0 488.0 670.0 544.0 
463.0 265.0 273.0 491.0 672.0 544.0 
458.0 265.0 280.0 493.0 680.0 539.0 
453.0 265.0 294.0 491.0 685.0 519.0 
450.0 266.0 313.0 570.0 636.0 457.0 
447.0 267.0 338.0 741.0 531.0 363.0 
445.0 268.0 388.0 1005.0 427.0 327.0 
443.0 270.0 440.0 1023.0 404.0 496.0 
442.0 271.0 479.0 685.0 552.0 718.0 
442.0 272.0 526.0 552.0 608.0 721.0 
441.0 273.0 582.0 514.0 647.0 606.0 
441.0 274.0 629.0 485.0 677.0 565.0 
441.0 276.0 659.0 462.0 690.0 544.0 
441.0 277.0 685.0 450.0 700.0 537.0 
441.0 279.0 703.0 452.0 703.0 534.0 
440.0 281.0 715.0 452.0 703.0 534.0 
439.0 283.0 720.0 452.0 700.0 529.0 
438.0 285.0 720.0 455.0 703.0 529.0 
436.0 286.0 716.0 460.0 703.0 526.0 
435.0 287.0 708.0 460.0 700.0 524.0 
433.0 288.0 699.0 460.0 698.0 524.0 
430.0 290.0 688.0 465.0 695.0 524.0 
428.0 291.0 672.0 462.0 695.0 524.0 
426.0 293.0 657.0 465.0 693.0 524.0 
424.0 294.0 646.0 465.0 693.0 524.0 
421.0 295.0 633.0 465.0 690.0 524.0 
418.0 296.0 619.0 470.0 690.0 521.0 
415.0 297.0 603.0 465.0 690.0 521.0 
412.0 297.0 586.0 465.0 690.0 524.0 
409.0 298.0 570.0 462.0 690.0 521.0 
406.0 299.0 554.0 462.0 690.0 521.0 
404.0 299.0 536.0 460.0 690.0 524.0 
401.0 299.0 517.0 457.0 690.0 529.0 
398.0 300.0 498.0 460.0 690.0 524.0 
396.0 300.0 480.0 455.0 695.0 529.0 
395.0 300.0 462.0 457.0 695.0 531.0 
395.0 300.0 447.0 460.0 698.0 534.0 
399.0 300.0 431.0 462.0 695.0 534.0 
408.0 300.0 417.0 465.0 700.0 534.0 
421.0 300.0 408.0 473.0 698.0 534.0 
439.0 300.0 402.0 478.0 698.0 534.0 
459.0 300.0 398.0 485.0 693.0 531.0 
481.0 300.0 395.0 493.0 693.0 531.0 
503.0 300.0 393.0 496.0 687.0 529.0 
525.0 299.0 392.0 501.0 682.0 529.0 
545.0 298.0 391.0 508.0 677.0 526.0 
563.0 296.0 391.0 508.0 675.0 526.0 
578.0 295.0 391.0 508.0 670.0 524.0 
590.0 293.0 390.0 508.0 667.0 524.0 
597.0 291.0 390.0 508.0 664.0 524.0 
601.0 289.0 389.0 508.0 667.0 524.0 
600.0 288.0 388.0 508.0 667.0 521.0 
596.0 286.0 386.0 508.0 664.0 519.0 
590.0 284.0 384.0 521.0 672.0 506.0 
582.0 282.0 383.0 534.0 680.0 488.0 
574.0 280.0 381.0 544.0 677.0 480.0 
566.0 277.0 378.0 557.0 659.0 478.0 
558.0 275.0 376.0 557.0 647.0 475.0 
550.0 272.0 372.0 549.0 652.0 488.0 
543.0 269.0 369.0 542.0 659.0 496.0 
537.0 267.0 366.0 526.0 662.0 508.0 
530.0 264.0 362.0 511.0 667.0 519.0 
522.0 262.0 358.0 496.0 670.0 534.0 
514.0 260.0 353.0 488.0 672.0 544.0 
505.0 257.0 350.0 485.0 670.0 544.0 
496.0 255.0 346.0 483.0 672.0 547.0 
487.0 253.0 341.0 483.0 672.0 544.0 
478.0 251.0 337.0 483.0 675.0 547.0 
470.0 249.0 334.0 485.0 672.0 547.0 
463.0 247.0 335.0 483.0 672.0 547.0 
457.0 245.0 342.0 483.0 672.0 547.0 
451.0 243.0 357.0 483.0 680.0 542.0 
447.0 242.0 382.0 501.0 685.0 519.0 
443.0 240.0 416.0 570.0 626.0 452.0 
440.0 239.0 458.0 744.0 519.0 363.0 
438.0 239.0 505.0 987.0 439.0 340.0 
436.0 238.0 555.0 1023.0 432.0 547.0 
435.0 238.0 602.0 652.0 588.0 744.0 
434.0 239.0 641.0 549.0 616.0 690.0 
434.0 239.0 670.0 514.0 649.0 608.0 
433.0 240.0 697.0 483.0 677.0 565.0 
433.0 241.0 718.0 457.0 690.0 547.0 
433.0 242.0 731.0 450.0 698.0 534.0 
432.0 243.0 738.0 447.0 700.0 534.0 
431.0 244.0 739.0 452.0 703.0 529.0 
430.0 245.0 735.0 455.0 698.0 526.0 
429.0 247.0 726.0 457.0 698.0 526.0 
428.0 248.0 714.0 457.0 695.0 524.0 
426.0 250.0 701.0 460.0 698.0 524.0 
425.0 251.0 686.0 460.0 693.0 521.0 
423.0 253.0 671.0 465.0 690.0 521.0 
421.0 255.0 656.0 465.0 687.0 521.0 
419.0 257.0 640.0 465.0 690.0 521.0 
417.0 259.0 623.0 468.0 687.0 521.0 
415.0 262.0 604.0 465.0 685.0 521.0 
413.0 264.0 585.0 470.0 680.0 521.0 
410.0 266.0 565.0 468.0 685.0 521.0 
407.0 268.0 543.0 468.0 680.0 521.0 
405.0 270.0 521.0 462.0 682.0 521.0 
402.0 272.0 498.0 462.0 680.0 521.0 
399.0 274.0 475.0 460.0 682.0 521.0 
397.0 276.0 453.0 460.0 685.0 521.0 
394.0 278.0 432.0 457.0 687.0 524.0 
392.0 281.0 414.0 457.0 687.0 529.0 
391.0 283.0 400.0 457.0 687.0 531.0 
392.0 285.0 385.0 457.0 690.0 534.0 
397.0 288.0 371.0 460.0 690.0 534.0 
406.0 290.0 359.0 462.0 693.0 537.0 
419.0 292.0 349.0 473.0 690.0 537.0 
437.0 294.0 341.0 478.0 690.0 534.0 
457.0 296.0 334.0 483.0 690.0 534.0 
479.0 298.0 329.0 488.0 690.0 531.0 
501.0 299.0 326.0 496.0 687.0 529.0 
522.0 300.0 323.0 501.0 680.0 529.0 
542.0 301.0 320.0 503.0 680.0 526.0 
560.0 301.0 319.0 503.0 675.0 526.0 
574.0 301.0 318.0 506.0 670.0 526.0 
585.0 301.0 317.0 506.0 670.0 526.0 
592.0 300.0 316.0 506.0 667.0 524.0 
595.0 300.0 315.0 506.0 667.0 521.0 
594.0 299.0 312.0 508.0 667.0 519.0 
590.0 298.0 309.0 508.0 664.0 511.0 
584.0 296.0 306.0 531.0 675.0 493.0 
577.0 295.0 303.0 542.0 677.0 478.0 
569.0 294.0 300.0 552.0 672.0 473.0 
561.0 292.0 296.0 560.0 652.0 475.0 
554.0 291.0 293.0 557.0 644.0 475.0 
546.0 289.0 289.0 547.0 652.0 491.0 
540.0 288.0 287.0 542.0 657.0 496.0 
533.0 287.0 285.0 524.0 659.0 508.0 
526.0 286.0 281.0 506.0 667.0 524.0 
519.0 285.0 278.0 491.0 670.0 537.0 
511.0 284.0 273.0 488.0 667.0 544.0 
502.0 283.0 269.0 488.0 670.0 544.0 
493.0 282.0 264.0 488.0 670.0 542.0 
484.0 282.0 259.0 488.0 670.0 544.0 
475.0 281.0 255.0 491.0 672.0 544.0 
468.0 281.0 254.0 488.0 670.0 544.0 
460.0 280.0 258.0 488.0 672.0 544.0 
454.0 280.0 269.0 488.0 672.0 542.0 
449.0 280.0 286.0 488.0 682.0 534.0 
445.0 280.0 309.0 514.0 670.0 503.0 
441.0 279.0 343.0 611.0 593.0 421.0 
438.0 279.0 387.0 803.0 498.0 352.0 
436.0 279.0 438.0 1023.0 445.0 350.0 
434.0 279.0 493.0 846.0 547.0 644.0 
433.0 280.0 546.0 611.0 608.0 749.0 
432.0 281.0 595.0 544.0 631.0 659.0 
432.0 281.0 637.0 503.0 659.0 588.0 
431.0 282.0 671.0 475.0 680.0 554.0 
431.0 284.0 695.0 457.0 690.0 537.0 
430.0 285.0 710.0 450.0 693.0 534.0 
430.0 286.0 718.0 450.0 695.0 531.0 
429.0 287.0 720.0 452.0 693.0 526.0 
429.0 289.0 717.0 450.0 695.0 531.0 
427.0 290.0 711.0 452.0 693.0 529.0 
426.0 292.0 702.0 457.0 690.0 526.0 
425.0 293.0 691.0 460.0 690.0 526.0 
423.0 295.0 679.0 462.0 690.0 521.0 
421.0 297.0 666.0 462.0 687.0 521.0 
420.0 299.0 651.0 465.0 685.0 521.0 
418.0 301.0 636.0 468.0 682.0 521.0 
416.0 304.0 620.0 468.0 680.0 521.0 
413.0 306.0 603.0 462.0 680.0 521.0 
411.0 309.0 584.0 468.0 680.0 521.0 
408.0 312.0 567.0 465.0 680.0 521.0 
406.0 315.0 549.0 468.0 680.0 521.0 
403.0 318.0 530.0 465.0 680.0 521.0 
400.0 321.0 508.0 462.0 680.0 521.0 
398.0 324.0 486.0 462.0 680.0 521.0 
395.0 326.0 465.0 460.0 680.0 521.0 
393.0 329.0 443.0 460.0 682.0 526.0 
391.0 331.0 423.0 460.0 685.0 529.0 
391.0 334.0 405.0 460.0 685.0 529.0 
393.0 336.0 388.0 462.0 687.0 531.0 
398.0 338.0 374.0 465.0 690.0 531.0 
408.0 340.0 362.0 473.0 690.0 534.0 
422.0 342.0 352.0 475.0 690.0 531.0 
440.0 344.0 346.0 483.0 690.0 531.0 
460.0 346.0 341.0 491.0 690.0 529.0 
481.0 348.0 337.0 496.0 690.0 529.0 
502.0 349.0 334.0 498.0 687.0 526.0 
523.0 350.0 332.0 503.0 680.0 526.0 
541.0 352.0 330.0 506.0 677.0 524.0 
558.0 352.0 329.0 508.0 675.0 524.0 
571.0 353.0 327.0 508.0 672.0 521.0 
581.0 354.0 326.0 508.0 672.0 521.0 
587.0 354.0 324.0 508.0 667.0 521.0 
590.0 354.0 322.0 508.0 667.0 521.0 
588.0 354.0 319.0 508.0 662.0 516.0 
585.0 353.0 317.0 519.0 664.0 506.0 
579.0 353.0 316.0 537.0 672.0 485.0 
572.0 351.0 314.0 544.0 675.0 473.0 
564.0 350.0 311.0 557.0 662.0 473.0 
557.0 348.0 308.0 562.0 644.0 473.0 
549.0 346.0 305.0 554.0 641.0 475.0 
542.0 343.0 301.0 544.0 652.0 488.0 
536.0 341.0 298.0 534.0 654.0 496.0 
529.0 339.0 294.0 521.0 659.0 508.0 
522.0 337.0 290.0 503.0 667.0 524.0 
514.0 334.0 286.0 488.0 667.0 537.0 
506.0 332.0 282.0 485.0 667.0 539.0 
497.0 329.0 277.0 483.0 667.0 544.0 
487.0 326.0 274.0 485.0 667.0 544.0 
479.0 323.0 272.0 485.0 670.0 544.0 
470.0 321.0 269.0 483.0 672.0 542.0 
463.0 319.0 270.0 483.0 670.0 544.0 
456.0 317.0 274.0 483.0 672.0 544.0 
451.0 316.0 285.0 488.0 675.0 542.0 
446.0 315.0 306.0 493.0 685.0 526.0 
442.0 313.0 336.0 539.0 652.0 475.0 
438.0 312.0 375.0 664.0 560.0 388.0 
436.0 312.0 422.0 897.0 473.0 340.0 
434.0 312.0 475.0 1023.0 442.0 445.0 
433.0 312.0 528.0 751.0 572.0 703.0 
432.0 312.0 573.0 577.0 608.0 741.0 
432.0 312.0 611.0 537.0 636.0 624.0 
431.0 313.0 648.0 493.0 667.0 575.0 
431.0 314.0 679.0 470.0 687.0 547.0 
431.0 315.0 702.0 457.0 695.0 534.0 
431.0 316.0 718.0 450.0 698.0 534.0 
430.0 317.0 726.0 450.0 700.0 531.0 
430.0 318.0 729.0 452.0 698.0 526.0 
429.0 319.0 726.0 455.0 698.0 526.0 
429.0 321.0 720.0 460.0 693.0 521.0 
428.0 322.0 710.0 460.0 693.0 521.0 
426.0 324.0 698.0 462.0 690.0 521.0 
425.0 325.0 685.0 465.0 690.0 519.0 
423.0 326.0 672.0 468.0 690.0 519.0 
421.0 327.0 658.0 468.0 687.0 519.0 
420.0 328.0 643.0 470.0 685.0 519.0 
417.0 329.0 627.0 468.0 682.0 519.0 
415.0 331.0 609.0 468.0 685.0 519.0 
413.0 332.0 590.0 470.0 680.0 519.0 
410.0 334.0 570.0 470.0 685.0 516.0 
407.0 336.0 549.0 470.0 682.0 514.0 
405.0 338.0 527.0 468.0 685.0 514.0 
402.0 340.0 505.0 462.0 685.0 516.0 
400.0 342.0 482.0 462.0 687.0 519.0 
398.0 344.0 461.0 460.0 690.0 521.0 
396.0 346.0 443.0 460.0 690.0 521.0 
395.0 348.0 427.0 462.0 690.0 524.0 
395.0 349.0 411.0 465.0 690.0 524.0 
398.0 351.0 397.0 462.0 690.0 529.0 
406.0 352.0 383.0 465.0 693.0 534.0 
420.0 354.0 372.0 473.0 690.0 534.0 
437.0 355.0 362.0 478.0 690.0 534.0 
456.0 356.0 355.0 483.0 693.0 531.0 
478.0 357.0 349.0 485.0 690.0 531.0 
500.0 357.0 345.0 496.0 687.0 526.0 
522.0 358.0 342.0 503.0 682.0 524.0 
543.0 358.0 340.0 501.0 680.0 526.0 
561.0 358.0 339.0 501.0 680.0 524.0 
577.0 358.0 338.0 506.0 675.0 521.0 
589.0 357.0 338.0 503.0 675.0 521.0 
597.0 357.0 338.0 508.0 670.0 521.0 
601.0 356.0 337.0 508.0 667.0 519.0 
601.0 355.0 336.0 508.0 670.0 514.0 
597.0 353.0 334.0 508.0 667.0 511.0 
591.0 352.0 332.0 516.0 672.0 503.0 
584.0 351.0 329.0 531.0 680.0 483.0 
576.0 349.0 327.0 542.0 680.0 473.0 
568.0 347.0 324.0 557.0 670.0 470.0 
560.0 346.0 321.0 562.0 649.0 468.0 
552.0 344.0 318.0 554.0 647.0 475.0 
545.0 342.0 316.0 542.0 654.0 485.0 
538.0 340.0 314.0 531.0 662.0 498.0 
531.0 338.0 312.0 511.0 667.0 511.0 
523.0 336.0 309.0 493.0 672.0 526.0 
515.0 334.0 306.0 483.0 675.0 537.0 
507.0 332.0 302.0 485.0 672.0 537.0 
497.0 331.0 298.0 483.0 675.0 537.0 
488.0 329.0 295.0 483.0 675.0 537.0 
479.0 328.0 292.0 480.0 677.0 539.0 
471.0 326.0 291.0 480.0 675.0 539.0 
463.0 325.0 295.0 478.0 677.0 542.0 
456.0 324.0 305.0 483.0 677.0 539.0 
451.0 322.0 321.0 480.0 680.0 539.0 
445.0 321.0 343.0 488.0 682.0 521.0 
442.0 319.0 376.0 534.0 654.0 473.0 
438.0 317.0 420.0 680.0 554.0 383.0 
436.0 315.0 470.0 933.0 460.0 329.0 
434.0 312.0 525.0 1023.0 424.0 434.0 
432.0 309.0 580.0 710.0 570.0 703.0 
432.0 306.0 631.0 547.0 613.0 734.0 
431.0 302.0 676.0 511.0 639.0 618.0 
430.0 298.0 712.0 478.0 675.0 570.0 
430.0 294.0 740.0 457.0 690.0 542.0 
430.0 291.0 759.0 447.0 698.0 534.0 
429.0 287.0 770.0 447.0 703.0 529.0 
429.0 284.0 774.0 447.0 703.0 526.0 
428.0 280.0 772.0 447.0 703.0 524.0 
427.0 276.0 767.0 447.0 703.0 521.0 
426.0 273.0 758.0 452.0 703.0 521.0 
424.0 268.0 748.0 455.0 703.0 521.0 
422.0 264.0 735.0 457.0 695.0 521.0 
421.0 260.0 721.0 457.0 695.0 521.0 
419.0 257.0 706.0 460.0 693.0 521.0 
418.0 253.0 690.0 460.0 693.0 521.0 
416.0 250.0 674.0 462.0 687.0 519.0 
413.0 248.0 656.0 462.0 687.0 519.0 
411.0 245.0 637.0 465.0 690.0 519.0 
409.0 244.0 620.0 460.0 685.0 521.0 
406.0 242.0 602.0 460.0 687.0 521.0 
404.0 240.0 582.0 462.0 685.0 519.0 
401.0 238.0 561.0 460.0 685.0 521.0 
399.0 237.0 538.0 457.0 687.0 521.0 
397.0 235.0 515.0 460.0 690.0 521.0 
394.0 235.0 493.0 455.0 690.0 521.0 
392.0 234.0 472.0 455.0 693.0 524.0 
391.0 234.0 453.0 455.0 695.0 526.0 
391.0 234.0 436.0 460.0 693.0 529.0 
394.0 233.0 421.0 460.0 695.0 534.0 
401.0 233.0 409.0 462.0 700.0 534.0 
413.0 233.0 398.0 473.0 700.0 534.0 
429.0 232.0 390.0 478.0 698.0 537.0 
449.0 232.0 385.0 485.0 695.0 534.0 
469.0 231.0 379.0 493.0 695.0 529.0 
491.0 231.0 375.0 498.0 690.0 529.0 
513.0 231.0 372.0 501.0 690.0 529.0 
533.0 230.0 369.0 503.0 685.0 526.0 
551.0 230.0 367.0 508.0 680.0 524.0 
567.0 229.0 365.0 511.0 677.0 521.0 
579.0 229.0 363.0 508.0 675.0 521.0 
587.0 227.0 361.0 508.0 672.0 521.0 
592.0 226.0 359.0 508.0 672.0 521.0 
592.0 224.0 356.0 508.0 670.0 521.0 
589.0 222.0 354.0 508.0 667.0 519.0 
583.0 220.0 352.0 514.0 670.0 511.0 
576.0 218.0 349.0 529.0 680.0 496.0 
567.0 216.0 346.0 544.0 682.0 480.0 
559.0 214.0 343.0 554.0 672.0 475.0 
551.0 212.0 340.0 565.0 654.0 475.0 
543.0 210.0 336.0 557.0 652.0 480.0 
537.0 208.0 332.0 549.0 659.0 488.0 
530.0 206.0 328.0 534.0 664.0 503.0 
523.0 204.0 324.0 519.0 667.0 516.0 
516.0 202.0 319.0 503.0 672.0 531.0 
509.0 200.0 315.0 491.0 675.0 542.0 
501.0 198.0 309.0 488.0 675.0 544.0 
492.0 196.0 305.0 488.0 675.0 544.0 
484.0 194.0 302.0 488.0 675.0 544.0 
476.0 192.0 297.0 485.0 675.0 544.0 
468.0 191.0 293.0 485.0 675.0 547.0 
461.0 190.0 293.0 483.0 675.0 549.0 
455.0 189.0 298.0 483.0 675.0 549.0 
450.0 188.0 310.0 483.0 677.0 547.0 
445.0 188.0 332.0 488.0 682.0 531.0 
442.0 188.0 364.0 531.0 654.0 485.0 
439.0 188.0 405.0 675.0 560.0 396.0 
437.0 188.0 453.0 905.0 475.0 345.0 
436.0 188.0 505.0 1023.0 445.0 445.0 
435.0 189.0 550.0 731.0 575.0 713.0 
434.0 190.0 590.0 554.0 613.0 754.0 
434.0 191.0 630.0 514.0 641.0 641.0 
434.0 193.0 665.0 480.0 670.0 585.0 
435.0 194.0 692.0 460.0 687.0 560.0 
435.0 196.0 712.0 447.0 698.0 544.0 
435.0 198.0 723.0 445.0 703.0 539.0 
434.0 200.0 727.0 447.0 703.0 537.0 
434.0 202.0 725.0 447.0 700.0 534.0 
433.0 204.0 718.0 452.0 700.0 534.0 
432.0 206.0 707.0 452.0 700.0 534.0 
430.0 208.0 694.0 455.0 698.0 534.0 
429.0 211.0 679.0 455.0 695.0 534.0 
427.0 213.0 665.0 460.0 693.0 529.0 
425.0 215.0 651.0 462.0 690.0 526.0 
423.0 217.0 635.0 465.0 693.0 524.0 
421.0 220.0 619.0 468.0 690.0 524.0 
419.0 222.0 601.0 465.0 690.0 524.0 
416.0 224.0 583.0 468.0 690.0 524.0 
413.0 226.0 563.0 465.0 690.0 524.0 
411.0 229.0 542.0 468.0 687.0 524.0 
408.0 232.0 520.0 465.0 690.0 524.0 
405.0 235.0 497.0 462.0 685.0 524.0 
402.0 238.0 474.0 460.0 690.0 524.0 
400.0 240.0 453.0 460.0 687.0 524.0 
398.0 243.0 434.0 460.0 690.0 529.0 
396.0 246.0 419.0 457.0 690.0 531.0 
394.0 248.0 402.0 455.0 690.0 534.0 
394.0 251.0 387.0 457.0 690.0 534.0 
397.0 254.0 373.0 460.0 693.0 537.0 
405.0 257.0 361.0 460.0 693.0 539.0 
417.0 260.0 351.0 468.0 693.0 542.0 
434.0 262.0 343.0 473.0 695.0 542.0 
453.0 265.0 338.0 478.0 693.0 539.0 
474.0 267.0 333.0 485.0 693.0 537.0 
495.0 269.0 330.0 491.0 690.0 534.0 
517.0 270.0 328.0 496.0 687.0 537.0 
537.0 271.0 327.0 501.0 682.0 537.0 
554.0 272.0 326.0 503.0 680.0 534.0 
570.0 273.0 326.0 506.0 677.0 534.0 
582.0 273.0 325.0 503.0 675.0 534.0 
590.0 274.0 324.0 506.0 672.0 531.0 
594.0 274.0 323.0 506.0 672.0 531.0 
594.0 274.0 321.0 508.0 670.0 529.0 
592.0 273.0 318.0 508.0 667.0 524.0 
586.0 273.0 316.0 519.0 667.0 514.0 
579.0 273.0 313.0 534.0 680.0 493.0 
571.0 272.0 310.0 544.0 680.0 480.0 
563.0 271.0 307.0 554.0 670.0 483.0 
556.0 270.0 303.0 562.0 647.0 480.0 
548.0 269.0 301.0 554.0 647.0 483.0 
541.0 267.0 299.0 544.0 654.0 496.0 
535.0 265.0 296.0 534.0 659.0 506.0 
528.0 263.0 293.0 516.0 664.0 519.0 
521.0 261.0 289.0 503.0 670.0 531.0 
513.0 260.0 284.0 493.0 672.0 544.0 
505.0 258.0 280.0 485.0 672.0 547.0 
496.0 256.0 276.0 485.0 672.0 547.0 
487.0 254.0 271.0 483.0 675.0 547.0 
479.0 253.0 268.0 485.0 677.0 547.0 
471.0 252.0 266.0 483.0 675.0 544.0 
464.0 251.0 269.0 483.0 677.0 547.0 
457.0 251.0 278.0 483.0 675.0 547.0 
452.0 250.0 292.0 485.0 680.0 544.0 
447.0 250.0 311.0 491.0 687.0 531.0 
443.0 250.0 342.0 539.0 657.0 483.0 
440.0 250.0 381.0 664.0 562.0 391.0 
437.0 250.0 429.0 900.0 473.0 340.0 
436.0 251.0 480.0 1023.0 437.0 437.0 
434.0 252.0 533.0 746.0 575.0 708.0 
433.0 253.0 582.0 567.0 613.0 749.0 
433.0 255.0 626.0 526.0 639.0 634.0 
432.0 256.0 662.0 491.0 670.0 580.0 
432.0 258.0 690.0 465.0 687.0 552.0 
431.0 260.0 710.0 452.0 698.0 542.0 
431.0 262.0 720.0 447.0 700.0 537.0 
430.0 263.0 724.0 450.0 698.0 534.0 
429.0 265.0 724.0 450.0 700.0 534.0 
428.0 267.0 721.0 452.0 698.0 534.0 
427.0 269.0 714.0 452.0 700.0 531.0 
426.0 270.0 705.0 457.0 695.0 526.0 
424.0 272.0 694.0 460.0 693.0 526.0 
422.0 274.0 681.0 460.0 693.0 526.0 
421.0 276.0 668.0 460.0 693.0 524.0 
419.0 277.0 654.0 462.0 690.0 524.0 
417.0 279.0 639.0 462.0 687.0 524.0 
414.0 281.0 623.0 465.0 687.0 521.0 
412.0 283.0 606.0 468.0 685.0 521.0 
410.0 285.0 589.0 468.0 685.0 521.0 
407.0 287.0 573.0 465.0 685.0 521.0 
404.0 289.0 554.0 465.0 685.0 521.0 
402.0 291.0 534.0 462.0 682.0 521.0 
399.0 293.0 513.0 460.0 685.0 524.0 
397.0 296.0 491.0 460.0 687.0 524.0 
395.0 298.0 471.0 457.0 690.0 529.0 
393.0 301.0 451.0 457.0 690.0 529.0 
392.0 303.0 433.0 455.0 690.0 534.0 
392.0 306.0 417.0 460.0 690.0 534.0 
395.0 308.0 402.0 460.0 690.0 537.0 
402.0 310.0 390.0 462.0 690.0 534.0 
415.0 313.0 381.0 470.0 695.0 537.0 
432.0 315.0 374.0 475.0 693.0 537.0 
451.0 317.0 368.0 483.0 690.0 537.0 
472.0 319.0 363.0 488.0 690.0 534.0 
494.0 321.0 359.0 496.0 687.0 531.0 
515.0 322.0 356.0 498.0 682.0 529.0 
535.0 323.0 353.0 503.0 680.0 529.0 
553.0 325.0 351.0 506.0 677.0 526.0 
568.0 325.0 348.0 506.0 670.0 526.0 
580.0 326.0 346.0 506.0 670.0 526.0 
588.0 327.0 345.0 508.0 667.0 524.0 
593.0 327.0 343.0 508.0 667.0 521.0 
593.0 327.0 340.0 508.0 667.0 521.0 
591.0 326.0 338.0 508.0 664.0 519.0 
586.0 325.0 337.0 519.0 662.0 506.0 
579.0 324.0 335.0 537.0 677.0 488.0 
571.0 322.0 332.0 544.0 675.0 478.0 
563.0 321.0 329.0 557.0 662.0 475.0 
556.0 319.0 326.0 565.0 641.0 473.0 
549.0 317.0 323.0 554.0 647.0 483.0 
542.0 315.0 319.0 544.0 654.0 493.0 
536.0 313.0 316.0 531.0 654.0 506.0 
529.0 310.0 312.0 519.0 659.0 514.0 
522.0 307.0 309.0 501.0 667.0 531.0 
515.0 305.0 305.0 488.0 670.0 542.0 
507.0 303.0 302.0 483.0 670.0 544.0 
498.0 301.0 299.0 483.0 670.0 544.0 
489.0 300.0 295.0 485.0 670.0 544.0 
480.0 299.0 292.0 485.0 670.0 544.0 
472.0 297.0 289.0 485.0 672.0 544.0 
464.0 296.0 290.0 485.0 670.0 547.0 
458.0 295.0 296.0 488.0 672.0 544.0 
452.0 295.0 310.0 488.0 675.0 544.0 
447.0 294.0 332.0 493.0 687.0 526.0 
443.0 293.0 365.0 542.0 654.0 480.0 
440.0 293.0 406.0 672.0 554.0 391.0 
437.0 292.0 454.0 900.0 473.0 345.0 
435.0 292.0 505.0 1023.0 445.0 455.0 
434.0 293.0 550.0 734.0 588.0 718.0 
433.0 293.0 589.0 572.0 618.0 749.0 
432.0 294.0 629.0 529.0 641.0 629.0 
431.0 296.0 663.0 491.0 670.0 575.0 
431.0 297.0 691.0 470.0 685.0 547.0 
430.0 299.0 711.0 455.0 693.0 534.0 
430.0 301.0 724.0 450.0 698.0 531.0 
429.0 303.0 729.0 447.0 698.0 529.0 
428.0 304.0 729.0 450.0 695.0 526.0 
427.0 306.0 725.0 455.0 695.0 526.0 
426.0 309.0 717.0 455.0 695.0 526.0 
425.0 311.0 706.0 460.0 690.0 524.0 
424.0 314.0 695.0 460.0 690.0 524.0 
422.0 316.0 683.0 465.0 687.0 521.0 
421.0 319.0 669.0 462.0 687.0 521.0 
419.0 322.0 655.0 465.0 685.0 521.0 
416.0 325.0 640.0 465.0 682.0 521.0 
414.0 329.0 623.0 468.0 682.0 519.0 
412.0 331.0 606.0 470.0 680.0 519.0 
409.0 334.0 588.0 468.0 680.0 519.0 
406.0 337.0 568.0 473.0 680.0 516.0 
404.0 340.0 547.0 470.0 680.0 516.0 
401.0 343.0 525.0 468.0 680.0 516.0 
399.0 346.0 502.0 465.0 682.0 516.0 
396.0 349.0 483.0 462.0 682.0 519.0 
394.0 352.0 465.0 462.0 687.0 519.0 
392.0 354.0 447.0 460.0 687.0 521.0 
391.0 357.0 428.0 460.0 687.0 521.0 
391.0 359.0 411.0 460.0 687.0 524.0 
395.0 362.0 396.0 462.0 690.0 529.0 
403.0 364.0 383.0 465.0 690.0 534.0 
415.0 366.0 372.0 470.0 690.0 534.0 
432.0 367.0 363.0 480.0 690.0 534.0 
451.0 368.0 355.0 483.0 690.0 534.0 
472.0 369.0 350.0 491.0 687.0 531.0 
493.0 370.0 345.0 496.0 690.0 529.0 
515.0 371.0 342.0 501.0 685.0 526.0 
535.0 372.0 340.0 503.0 682.0 526.0 
553.0 372.0 339.0 508.0 680.0 524.0 
568.0 373.0 337.0 508.0 675.0 524.0 
580.0 373.0 336.0 508.0 672.0 521.0 
589.0 373.0 334.0 508.0 670.0 521.0 
593.0 372.0 332.0 508.0 670.0 521.0 
594.0 372.0 330.0 508.0 667.0 519.0 
592.0 370.0 328.0 508.0 667.0 511.0 
587.0 369.0 325.0 519.0 664.0 503.0 
580.0 367.0 322.0 539.0 680.0 483.0 
573.0 365.0 319.0 547.0 675.0 473.0 
565.0 363.0 316.0 562.0 662.0 468.0 
558.0 361.0 314.0 567.0 647.0 473.0 
552.0 358.0 312.0 557.0 649.0 475.0 
545.0 356.0 309.0 549.0 654.0 485.0 
538.0 352.0 306.0 537.0 659.0 498.0 
532.0 349.0 303.0 521.0 664.0 508.0 
525.0 345.0 299.0 506.0 670.0 526.0 
517.0 342.0 295.0 496.0 672.0 534.0 
509.0 339.0 291.0 493.0 672.0 534.0 
500.0 336.0 287.0 491.0 670.0 537.0 
491.0 334.0 282.0 488.0 675.0 537.0 
482.0 332.0 279.0 491.0 672.0 537.0 
473.0 330.0 277.0 488.0 672.0 539.0 
466.0 328.0 279.0 491.0 672.0 537.0 
460.0 326.0 285.0 485.0 672.0 539.0 
454.0 325.0 297.0 488.0 677.0 537.0 
449.0 324.0 317.0 493.0 685.0 521.0 
445.0 323.0 347.0 549.0 649.0 468.0 
443.0 322.0 386.0 690.0 549.0 375.0 
440.0 321.0 433.0 941.0 450.0 322.0 
438.0 320.0 484.0 1023.0 411.0 447.0 
437.0 320.0 536.0 736.0 552.0 700.0 
437.0 320.0 585.0 570.0 598.0 728.0 
436.0 320.0 629.0 529.0 636.0 611.0 
436.0 320.0 665.0 491.0 670.0 567.0 
436.0 320.0 693.0 468.0 685.0 542.0 
436.0 321.0 711.0 452.0 695.0 529.0 
436.0 321.0 721.0 447.0 700.0 524.0 
435.0 322.0 727.0 450.0 698.0 524.0 
435.0 323.0 728.0 452.0 698.0 521.0 
434.0 324.0 725.0 452.0 695.0 521.0 
433.0 325.0 718.0 452.0 703.0 521.0 
432.0 327.0 709.0 460.0 703.0 516.0 
430.0 328.0 697.0 460.0 698.0 521.0 
429.0 329.0 685.0 462.0 695.0 519.0 
427.0 331.0 671.0 460.0 695.0 521.0 
425.0 332.0 657.0 465.0 693.0 519.0 
423.0 334.0 642.0 460.0 690.0 521.0 
421.0 335.0 625.0 460.0 690.0 519.0 
418.0 337.0 610.0 462.0 690.0 516.0 
415.0 338.0 594.0 462.0 687.0 516.0 
413.0 340.0 576.0 460.0 690.0 516.0 
410.0 342.0 556.0 460.0 687.0 516.0 
407.0 344.0 536.0 460.0 687.0 516.0 
405.0 347.0 514.0 460.0 687.0 516.0 
402.0 349.0 493.0 460.0 687.0 514.0 
399.0 352.0 472.0 460.0 690.0 516.0 
397.0 354.0 453.0 455.0 695.0 521.0 
395.0 356.0 434.0 450.0 698.0 526.0 
395.0 358.0 417.0 455.0 700.0 524.0 
398.0 360.0 403.0 457.0 700.0 529.0 
406.0 362.0 392.0 465.0 700.0 526.0 
419.0 363.0 384.0 473.0 700.0 529.0 
437.0 364.0 376.0 475.0 700.0 526.0 
456.0 364.0 370.0 480.0 698.0 529.0 
477.0 365.0 365.0 488.0 695.0 524.0 
499.0 364.0 362.0 493.0 695.0 526.0 
520.0 364.0 360.0 498.0 690.0 521.0 
540.0 363.0 359.0 501.0 682.0 521.0 
557.0 362.0 358.0 498.0 680.0 521.0 
571.0 360.0 357.0 506.0 675.0 516.0 
582.0 358.0 357.0 503.0 675.0 516.0 
589.0 354.0 356.0 503.0 675.0 516.0 
593.0 351.0 356.0 503.0 675.0 516.0 
592.0 347.0 356.0 503.0 675.0 511.0 
588.0 342.0 356.0 508.0 667.0 508.0 
582.0 336.0 356.0 511.0 675.0 503.0 
575.0 330.0 356.0 529.0 682.0 483.0 
567.0 324.0 355.0 542.0 680.0 473.0 
559.0 317.0 355.0 557.0 667.0 473.0 
551.0 311.0 355.0 554.0 654.0 473.0 
544.0 305.0 354.0 557.0 654.0 480.0 
538.0 299.0 354.0 544.0 662.0 485.0 
531.0 293.0 353.0 529.0 667.0 498.0 
524.0 287.0 352.0 514.0 670.0 514.0 
517.0 282.0 350.0 498.0 675.0 526.0 
509.0 276.0 349.0 493.0 677.0 534.0 
501.0 270.0 348.0 491.0 677.0 534.0 
492.0 265.0 345.0 493.0 675.0 537.0 
483.0 261.0 342.0 491.0 677.0 537.0 
475.0 256.0 339.0 483.0 675.0 539.0 
467.0 252.0 337.0 485.0 677.0 539.0 
460.0 249.0 338.0 488.0 675.0 537.0 
454.0 246.0 345.0 488.0 677.0 539.0 
449.0 243.0 359.0 488.0 675.0 534.0 
445.0 240.0 382.0 483.0 685.0 521.0 
441.0 238.0 414.0 544.0 644.0 470.0 
439.0 236.0 455.0 698.0 552.0 375.0 
437.0 234.0 502.0 948.0 460.0 327.0 
436.0 232.0 545.0 1023.0 429.0 439.0 
435.0 231.0 584.0 716.0 570.0 698.0 
435.0 230.0 633.0 549.0 616.0 731.0 
435.0 229.0 682.0 511.0 644.0 624.0 
435.0 229.0 721.0 483.0 675.0 570.0 
435.0 228.0 750.0 470.0 690.0 544.0 
434.0 228.0 768.0 455.0 700.0 537.0 
434.0 228.0 778.0 452.0 703.0 531.0 
433.0 228.0 780.0 452.0 700.0 529.0 
432.0 228.0 776.0 457.0 703.0 526.0 
431.0 229.0 768.0 460.0 703.0 524.0 
430.0 229.0 755.0 462.0 700.0 521.0 
429.0 230.0 742.0 465.0 698.0 521.0 
427.0 231.0 727.0 465.0 700.0 521.0 
425.0 233.0 712.0 468.0 695.0 521.0 
423.0 234.0 695.0 470.0 695.0 521.0 
421.0 235.0 677.0 470.0 693.0 521.0 
418.0 237.0 658.0 473.0 690.0 521.0 
415.0 238.0 639.0 470.0 690.0 519.0 
413.0 240.0 619.0 470.0 690.0 521.0 
410.0 242.0 597.0 473.0 687.0 519.0 
407.0 244.0 575.0 470.0 690.0 521.0 
405.0 245.0 551.0 473.0 690.0 519.0 
402.0 247.0 526.0 468.0 690.0 521.0 
399.0 249.0 502.0 468.0 687.0 521.0 
397.0 251.0 481.0 462.0 690.0 524.0 
394.0 252.0 461.0 460.0 690.0 526.0 
392.0 254.0 441.0 460.0 693.0 529.0 
391.0 256.0 422.0 460.0 690.0 529.0 
391.0 257.0 403.0 462.0 693.0 534.0 
394.0 259.0 387.0 462.0 693.0 534.0 
402.0 260.0 373.0 468.0 693.0 534.0 
414.0 261.0 362.0 473.0 690.0 534.0 
431.0 262.0 353.0 478.0 690.0 534.0 
451.0 263.0 346.0 483.0 690.0 534.0 
472.0 265.0 341.0 491.0 690.0 534.0 
493.0 266.0 338.0 496.0 690.0 534.0 
515.0 267.0 335.0 501.0 685.0 534.0 
535.0 268.0 334.0 503.0 682.0 534.0 
554.0 269.0 332.0 506.0 680.0 531.0 
570.0 270.0 331.0 508.0 677.0 526.0 
582.0 270.0 329.0 508.0 675.0 529.0 
590.0 270.0 327.0 508.0 672.0 526.0 
594.0 270.0 325.0 508.0 670.0 526.0 
594.0 269.0 321.0 508.0 670.0 524.0 
591.0 269.0 318.0 508.0 667.0 521.0 
585.0 268.0 313.0 514.0 667.0 516.0 
578.0 267.0 309.0 531.0 677.0 498.0 
570.0 266.0 304.0 544.0 680.0 480.0 
562.0 264.0 300.0 557.0 672.0 475.0 
554.0 263.0 296.0 567.0 652.0 473.0 
547.0 262.0 293.0 562.0 647.0 478.0 
540.0 260.0 289.0 549.0 654.0 491.0 
533.0 258.0 284.0 542.0 657.0 498.0 
526.0 256.0 279.0 524.0 662.0 511.0 
519.0 254.0 274.0 506.0 667.0 526.0 
511.0 252.0 269.0 493.0 667.0 537.0 
503.0 250.0 264.0 493.0 667.0 544.0 
494.0 247.0 258.0 488.0 667.0 544.0 
485.0 245.0 253.0 488.0 667.0 544.0 
477.0 243.0 248.0 485.0 670.0 544.0 
469.0 242.0 245.0 485.0 670.0 544.0 
461.0 240.0 246.0 483.0 670.0 549.0 
455.0 239.0 251.0 485.0 670.0 547.0 
450.0 238.0 263.0 485.0 672.0 544.0 
445.0 238.0 284.0 485.0 685.0 537.0 
442.0 238.0 316.0 521.0 664.0 501.0 
439.0 238.0 358.0 636.0 580.0 411.0 
437.0 239.0 408.0 846.0 485.0 342.0 
435.0 239.0 463.0 1023.0 434.0 393.0 
433.0 240.0 520.0 803.0 547.0 672.0 
432.0 241.0 575.0 588.0 601.0 744.0 
432.0 242.0 623.0 531.0 631.0 652.0 
432.0 243.0 663.0 496.0 664.0 588.0 
431.0 244.0 694.0 473.0 685.0 557.0 
431.0 244.0 714.0 452.0 693.0 542.0 
431.0 245.0 724.0 447.0 700.0 534.0 
431.0 246.0 730.0 447.0 700.0 534.0 
430.0 248.0 730.0 450.0 698.0 529.0 
429.0 250.0 726.0 452.0 703.0 529.0 
428.0 252.0 718.0 457.0 698.0 526.0 
426.0 253.0 708.0 457.0 695.0 526.0 
425.0 255.0 695.0 460.0 695.0 526.0 
423.0 256.0 682.0 460.0 695.0 524.0 
421.0 258.0 667.0 465.0 690.0 521.0 
420.0 259.0 652.0 462.0 690.0 521.0 
418.0 261.0 635.0 465.0 690.0 521.0 
415.0 264.0 620.0 465.0 687.0 521.0 
413.0 266.0 605.0 465.0 690.0 521.0 
410.0 268.0 587.0 465.0 685.0 521.0 
407.0 270.0 567.0 465.0 682.0 521.0 
404.0 272.0 546.0 468.0 682.0 521.0 
401.0 275.0 524.0 465.0 682.0 521.0 
398.0 277.0 501.0 462.0 682.0 521.0 
396.0 280.0 479.0 460.0 687.0 521.0 
393.0 282.0 457.0 457.0 687.0 524.0 
390.0 285.0 436.0 457.0 690.0 529.0 
389.0 288.0 417.0 457.0 693.0 526.0 
389.0 292.0 400.0 460.0 693.0 529.0 
391.0 295.0 387.0 460.0 690.0 531.0 
397.0 298.0 376.0 462.0 693.0 534.0 
408.0 301.0 366.0 468.0 690.0 534.0 
424.0 304.0 358.0 473.0 693.0 534.0 
443.0 306.0 351.0 480.0 693.0 534.0 
463.0 309.0 345.0 485.0 693.0 531.0 
485.0 311.0 342.0 493.0 690.0 529.0 
506.0 312.0 339.0 498.0 687.0 526.0 
527.0 313.0 338.0 506.0 680.0 526.0 
545.0 314.0 336.0 506.0 680.0 526.0 
561.0 314.0 335.0 508.0 677.0 524.0 
574.0 315.0 334.0 508.0 672.0 521.0 
583.0 315.0 333.0 508.0 670.0 521.0 
588.0 315.0 332.0 508.0 670.0 521.0 
590.0 314.0 331.0 508.0 667.0 521.0 
587.0 313.0 330.0 508.0 667.0 519.0 
582.0 312.0 328.0 511.0 664.0 511.0 
576.0 310.0 325.0 524.0 677.0 498.0 
569.0 308.0 323.0 537.0 680.0 483.0 
562.0 306.0 320.0 552.0 672.0 475.0 
554.0 304.0 317.0 557.0 652.0 473.0 
547.0 301.0 314.0 557.0 641.0 475.0 
541.0 299.0 310.0 544.0 649.0 488.0 
535.0 296.0 306.0 539.0 654.0 496.0 
528.0 294.0 302.0 521.0 659.0 508.0 
521.0 291.0 299.0 506.0 667.0 524.0 
514.0 289.0 297.0 488.0 672.0 539.0 
506.0 288.0 293.0 485.0 672.0 544.0 
497.0 286.0 289.0 483.0 675.0 544.0 
488.0 285.0 284.0 483.0 672.0 544.0 
479.0 284.0 279.0 483.0 672.0 544.0 
470.0 283.0 275.0 483.0 670.0 544.0 
463.0 282.0 274.0 483.0 672.0 544.0 
456.0 281.0 279.0 483.0 675.0 544.0 
451.0 280.0 290.0 483.0 672.0 544.0 
445.0 280.0 312.0 485.0 682.0 537.0 
441.0 279.0 344.0 508.0 675.0 508.0 
438.0 279.0 386.0 595.0 606.0 429.0 
436.0 279.0 429.0 787.0 503.0 355.0 
434.0 279.0 473.0 1017.0 439.0 345.0 
432.0 279.0 524.0 1023.0 531.0 616.0 
431.0 280.0 577.0 618.0 603.0 751.0 
431.0 281.0 627.0 539.0 626.0 672.0 
430.0 281.0 670.0 503.0 657.0 595.0 
430.0 282.0 705.0 475.0 680.0 557.0 
430.0 283.0 730.0 457.0 693.0 539.0 
430.0 285.0 746.0 447.0 695.0 531.0 
429.0 286.0 755.0 447.0 700.0 531.0 
428.0 287.0 756.0 447.0 700.0 529.0 
427.0 289.0 753.0 452.0 698.0 526.0 
426.0 290.0 745.0 455.0 695.0 521.0 
424.0 292.0 735.0 457.0 695.0 521.0 
422.0 293.0 723.0 460.0 690.0 521.0 
421.0 295.0 710.0 460.0 690.0 521.0 
419.0 297.0 695.0 462.0 690.0 521.0 
417.0 299.0 680.0 465.0 687.0 521.0 
415.0 302.0 664.0 468.0 685.0 516.0 
413.0 305.0 646.0 470.0 685.0 516.0 
410.0 308.0 628.0 470.0 685.0 516.0 
407.0 311.0 608.0 468.0 685.0 516.0 
405.0 315.0 587.0 468.0 682.0 519.0 
402.0 319.0 564.0 465.0 682.0 519.0 
399.0 322.0 541.0 462.0 680.0 516.0 
396.0 325.0 520.0 462.0 680.0 519.0 
394.0 327.0 500.0 460.0 682.0 519.0 
391.0 329.0 478.0 460.0 682.0 521.0 
389.0 332.0 456.0 460.0 687.0 521.0 
388.0 335.0 435.0 457.0 687.0 524.0 
387.0 337.0 416.0 457.0 690.0 529.0 
388.0 340.0 398.0 460.0 690.0 529.0 
393.0 342.0 383.0 462.0 690.0 531.0 
403.0 344.0 371.0 468.0 690.0 531.0 
417.0 346.0 360.0 473.0 693.0 534.0 
435.0 348.0 352.0 480.0 693.0 534.0 
455.0 349.0 346.0 483.0 690.0 534.0 
476.0 350.0 342.0 493.0 687.0 534.0 
497.0 351.0 340.0 496.0 685.0 529.0 
518.0 352.0 337.0 501.0 680.0 529.0 
537.0 352.0 335.0 501.0 680.0 529.0 
554.0 352.0 333.0 506.0 675.0 524.0 
568.0 351.0 332.0 506.0 672.0 526.0 
578.0 351.0 330.0 508.0 667.0 524.0 
585.0 351.0 328.0 508.0 667.0 524.0 
588.0 350.0 325.0 511.0 664.0 521.0 
587.0 350.0 322.0 508.0 662.0 516.0 
583.0 350.0 319.0 511.0 659.0 508.0 
577.0 349.0 316.0 524.0 670.0 496.0 
570.0 348.0 313.0 542.0 675.0 473.0 
563.0 347.0 310.0 549.0 670.0 470.0 
556.0 346.0 308.0 557.0 652.0 468.0 
549.0 344.0 305.0 557.0 641.0 470.0 
542.0 343.0 301.0 544.0 647.0 480.0 
536.0 342.0 297.0 542.0 654.0 491.0 
530.0 340.0 293.0 521.0 659.0 503.0 
523.0 338.0 288.0 506.0 664.0 519.0 
515.0 337.0 283.0 493.0 672.0 531.0 
507.0 335.0 279.0 483.0 670.0 539.0 
498.0 333.0 274.0 480.0 672.0 542.0 
489.0 331.0 269.0 480.0 672.0 542.0 
480.0 329.0 264.0 475.0 675.0 544.0 
471.0 327.0 260.0 480.0 672.0 537.0 
463.0 326.0 259.0 478.0 672.0 539.0 
456.0 324.0 260.0 478.0 675.0 544.0 
450.0 323.0 267.0 475.0 677.0 544.0 
445.0 321.0 283.0 480.0 682.0 537.0 
440.0 320.0 308.0 501.0 687.0 511.0 
436.0 320.0 344.0 583.0 608.0 429.0 
433.0 319.0 390.0 757.0 511.0 355.0 
430.0 319.0 443.0 992.0 450.0 340.0 
428.0 319.0 499.0 1022.0 531.0 590.0 
427.0 319.0 556.0 631.0 616.0 741.0 
425.0 319.0 608.0 537.0 631.0 675.0 
424.0 319.0 654.0 498.0 657.0 595.0 
423.0 319.0 687.0 470.0 682.0 554.0 
422.0 318.0 711.0 457.0 690.0 531.0 
421.0 318.0 729.0 450.0 698.0 524.0 
420.0 317.0 741.0 452.0 700.0 519.0 
419.0 316.0 746.0 447.0 703.0 521.0 
418.0 315.0 746.0 452.0 700.0 519.0 
417.0 314.0 741.0 455.0 695.0 519.0 
415.0 312.0 733.0 457.0 690.0 519.0 
413.0 311.0 722.0 460.0 690.0 516.0 
412.0 309.0 709.0 460.0 690.0 516.0 
410.0 307.0 696.0 462.0 690.0 514.0 
408.0 304.0 681.0 460.0 690.0 519.0 
406.0 302.0 667.0 462.0 687.0 514.0 
404.0 299.0 652.0 468.0 682.0 508.0 
402.0 297.0 636.0 470.0 682.0 508.0 
400.0 294.0 618.0 468.0 685.0 508.0 
398.0 292.0 598.0 465.0 682.0 511.0 
395.0 290.0 576.0 460.0 685.0 514.0 
393.0 288.0 553.0 462.0 682.0 514.0 
390.0 285.0 530.0 462.0 680.0 514.0 
388.0 283.0 506.0 460.0 682.0 514.0 
386.0 281.0 482.0 455.0 690.0 521.0 
383.0 279.0 460.0 457.0 685.0 519.0 
382.0 276.0 438.0 455.0 687.0 524.0 
381.0 274.0 418.0 457.0 690.0 524.0 
382.0 271.0 401.0 460.0 690.0 529.0 
385.0 269.0 388.0 455.0 695.0 534.0 
393.0 266.0 375.0 465.0 690.0 531.0 
406.0 263.0 363.0 473.0 690.0 534.0 
422.0 261.0 353.0 480.0 690.0 531.0 
441.0 259.0 344.0 485.0 690.0 531.0 
461.0 257.0 336.0 491.0 690.0 529.0 
482.0 256.0 330.0 496.0 685.0 526.0 
502.0 253.0 325.0 498.0 682.0 524.0 
522.0 251.0 321.0 501.0 680.0 524.0 
538.0 249.0 318.0 503.0 675.0 524.0 
553.0 247.0 314.0 508.0 672.0 521.0 
565.0 244.0 312.0 508.0 670.0 521.0 
573.0 241.0 311.0 508.0 670.0 521.0 
578.0 238.0 308.0 511.0 667.0 519.0 
579.0 236.0 305.0 511.0 664.0 519.0 
577.0 233.0 302.0 514.0 662.0 511.0 
572.0 230.0 298.0 529.0 672.0 496.0 
566.0 227.0 295.0 539.0 672.0 478.0 
560.0 224.0 292.0 554.0 667.0 473.0 
553.0 221.0 288.0 567.0 647.0 473.0 
546.0 219.0 287.0 567.0 641.0 473.0 
539.0 216.0 287.0 557.0 649.0 480.0 
532.0 214.0 285.0 547.0 654.0 491.0 
526.0 212.0 283.0 531.0 657.0 503.0 
519.0 211.0 280.0 516.0 662.0 519.0 
513.0 209.0 278.0 503.0 667.0 529.0 
505.0 207.0 275.0 496.0 667.0 534.0 
497.0 206.0 270.0 496.0 667.0 534.0 
488.0 205.0 266.0 496.0 667.0 534.0 
480.0 204.0 262.0 496.0 667.0 534.0 
471.0 204.0 258.0 491.0 667.0 537.0 
464.0 204.0 255.0 493.0 667.0 539.0 
458.0 204.0 256.0 496.0 667.0 537.0 
452.0 205.0 261.0 493.0 667.0 539.0 
448.0 206.0 274.0 496.0 675.0 531.0 
445.0 207.0 296.0 519.0 677.0 498.0 
442.0 208.0 322.0 621.0 593.0 416.0 
440.0 210.0 354.0 828.0 496.0 337.0 
439.0 211.0 397.0 1023.0 419.0 322.0 
439.0 213.0 446.0 895.0 496.0 580.0 
439.0 216.0 499.0 618.0 583.0 723.0 
440.0 218.0 550.0 537.0 618.0 654.0 
440.0 221.0 597.0 503.0 649.0 588.0 
441.0 224.0 637.0 480.0 680.0 554.0 
442.0 227.0 668.0 468.0 690.0 534.0 
442.0 230.0 691.0 460.0 690.0 529.0 
443.0 234.0 705.0 460.0 695.0 526.0 
443.0 237.0 712.0 460.0 698.0 526.0 
442.0 241.0 714.0 460.0 693.0 526.0 
441.0 245.0 711.0 460.0 693.0 524.0 
440.0 249.0 704.0 462.0 693.0 521.0 
439.0 253.0 696.0 465.0 695.0 521.0 
437.0 257.0 685.0 468.0 690.0 521.0 
435.0 260.0 673.0 468.0 687.0 521.0 
433.0 264.0 660.0 470.0 685.0 521.0 
430.0 267.0 646.0 468.0 685.0 521.0 
428.0 271.0 631.0 473.0 687.0 519.0 
425.0 276.0 615.0 470.0 687.0 519.0 
422.0 280.0 598.0 473.0 685.0 519.0 
419.0 285.0 580.0 473.0 685.0 519.0 
415.0 289.0 561.0 470.0 685.0 519.0 
413.0 294.0 543.0 468.0 685.0 516.0 
410.0 299.0 526.0 462.0 687.0 521.0 
407.0 303.0 507.0 460.0 687.0 521.0 
404.0 308.0 487.0 455.0 690.0 524.0 
402.0 311.0 467.0 455.0 690.0 526.0 
400.0 315.0 448.0 455.0 693.0 531.0 
399.0 319.0 431.0 457.0 695.0 531.0 
402.0 323.0 417.0 455.0 700.0 534.0 
408.0 326.0 405.0 460.0 700.0 534.0 
421.0 330.0 395.0 460.0 698.0 537.0 
437.0 333.0 387.0 468.0 700.0 539.0 
457.0 335.0 382.0 473.0 698.0 539.0 
479.0 337.0 379.0 483.0 700.0 537.0 
501.0 340.0 377.0 483.0 695.0 537.0 
523.0 341.0 376.0 493.0 690.0 537.0 
544.0 343.0 377.0 498.0 687.0 534.0 
562.0 344.0 377.0 503.0 682.0 534.0 
578.0 345.0 378.0 503.0 680.0 531.0 
591.0 346.0 378.0 503.0 677.0 529.0 
600.0 347.0 378.0 508.0 675.0 526.0 
604.0 347.0 378.0 508.0 670.0 526.0 
603.0 348.0 377.0 508.0 670.0 526.0 
600.0 347.0 375.0 508.0 670.0 521.0 
593.0 347.0 373.0 511.0 667.0 516.0 
585.0 347.0 370.0 524.0 675.0 506.0 
576.0 346.0 368.0 542.0 680.0 485.0 
568.0 345.0 366.0 552.0 677.0 480.0 
559.0 344.0 362.0 565.0 654.0 475.0 
551.0 343.0 359.0 557.0 647.0 480.0 
544.0 342.0 355.0 547.0 652.0 491.0 
537.0 340.0 350.0 542.0 659.0 496.0 
531.0 339.0 346.0 526.0 662.0 508.0 
524.0 337.0 341.0 508.0 670.0 524.0 
517.0 336.0 337.0 493.0 675.0 537.0 
509.0 334.0 332.0 485.0 675.0 544.0 
500.0 331.0 327.0 483.0 672.0 544.0 
492.0 329.0 322.0 483.0 675.0 547.0 
483.0 326.0 319.0 485.0 675.0 544.0 
476.0 324.0 317.0 488.0 677.0 544.0 
468.0 321.0 316.0 483.0 675.0 544.0 
462.0 319.0 320.0 483.0 677.0 547.0 
457.0 316.0 330.0 483.0 677.0 544.0 
452.0 314.0 349.0 485.0 687.0 539.0 
448.0 313.0 378.0 503.0 690.0 514.0 
445.0 311.0 417.0 598.0 618.0 437.0 
442.0 309.0 464.0 800.0 501.0 345.0 
440.0 308.0 516.0 1023.0 406.0 329.0 
439.0 306.0 570.0 915.0 480.0 583.0 
438.0 304.0 622.0 624.0 567.0 736.0 
437.0 303.0 669.0 542.0 616.0 664.0 
437.0 301.0 704.0 503.0 657.0 598.0 
436.0 300.0 730.0 473.0 682.0 562.0 
436.0 299.0 751.0 455.0 695.0 544.0 
435.0 298.0 767.0 447.0 703.0 539.0 
434.0 297.0 775.0 447.0 703.0 534.0 
433.0 296.0 777.0 447.0 703.0 534.0 
432.0 295.0 774.0 447.0 703.0 534.0 
430.0 294.0 767.0 450.0 703.0 534.0 
429.0 293.0 758.0 452.0 700.0 531.0 
427.0 292.0 746.0 452.0 700.0 529.0 
425.0 291.0 733.0 460.0 695.0 529.0 
423.0 290.0 719.0 457.0 693.0 526.0 
421.0 289.0 705.0 460.0 690.0 529.0 
418.0 288.0 692.0 460.0 690.0 526.0 
416.0 287.0 678.0 462.0 690.0 526.0 
413.0 287.0 662.0 460.0 687.0 526.0 
411.0 286.0 646.0 462.0 685.0 526.0 
408.0 286.0 629.0 462.0 687.0 526.0 
406.0 287.0 611.0 462.0 685.0 526.0 
403.0 287.0 592.0 460.0 685.0 526.0 
400.0 288.0 572.0 460.0 687.0 526.0 
397.0 288.0 551.0 457.0 690.0 526.0 
394.0 289.0 532.0 452.0 690.0 531.0 
391.0 290.0 513.0 452.0 690.0 531.0 
390.0 291.0 495.0 455.0 693.0 531.0 
389.0 292.0 480.0 457.0 693.0 534.0 
390.0 292.0 469.0 455.0 695.0 534.0 
395.0 293.0 457.0 460.0 690.0 537.0 
405.0 294.0 446.0 465.0 693.0 537.0 
420.0 294.0 437.0 473.0 693.0 537.0 
438.0 295.0 430.0 475.0 690.0 537.0 
459.0 296.0 423.0 483.0 690.0 534.0 
481.0 297.0 418.0 488.0 690.0 534.0 
503.0 297.0 414.0 493.0 682.0 534.0 
524.0 297.0 411.0 496.0 680.0 534.0 
544.0 297.0 408.0 498.0 670.0 529.0 
562.0 296.0 405.0 498.0 667.0 531.0 
576.0 295.0 402.0 501.0 664.0 529.0 
587.0 294.0 399.0 503.0 664.0 529.0 
593.0 293.0 396.0 503.0 662.0 529.0 
596.0 292.0 392.0 498.0 662.0 529.0 
594.0 291.0 388.0 498.0 664.0 529.0 
590.0 289.0 383.0 501.0 662.0 524.0 
584.0 288.0 378.0 511.0 667.0 514.0 
576.0 286.0 373.0 529.0 677.0 496.0 
568.0 285.0 368.0 534.0 675.0 485.0 
560.0 283.0 362.0 549.0 657.0 485.0 
552.0 281.0 357.0 554.0 641.0 485.0 
545.0 279.0 351.0 544.0 641.0 491.0 
538.0 277.0 346.0 534.0 654.0 503.0 
532.0 274.0 342.0 519.0 654.0 516.0 
525.0 272.0 338.0 503.0 659.0 529.0 
518.0 269.0 334.0 491.0 664.0 542.0 
509.0 267.0 328.0 480.0 667.0 549.0 
500.0 266.0 322.0 475.0 664.0 554.0 
491.0 264.0 316.0 473.0 667.0 557.0 
482.0 263.0 309.0 475.0 664.0 557.0 
474.0 262.0 303.0 473.0 667.0 557.0 
466.0 261.0 299.0 478.0 664.0 554.0 
459.0 260.0 299.0 478.0 667.0 557.0 
452.0 259.0 305.0 478.0 667.0 554.0 
447.0 259.0 319.0 475.0 675.0 554.0 
443.0 258.0 339.0 485.0 680.0 531.0 
439.0 258.0 365.0 552.0 629.0 470.0 
437.0 258.0 402.0 700.0 529.0 386.0 
435.0 258.0 448.0 946.0 450.0 360.0 
433.0 258.0 499.0 1023.0 434.0 537.0 
432.0 259.0 551.0 667.0 583.0 751.0 
431.0 260.0 600.0 542.0 608.0 754.0 
431.0 261.0 643.0 503.0 641.0 626.0 
431.0 262.0 678.0 473.0 672.0 577.0 
430.0 263.0 703.0 450.0 685.0 554.0 
430.0 264.0 721.0 439.0 690.0 544.0 
429.0 265.0 730.0 437.0 690.0 544.0 
429.0 267.0 732.0 439.0 690.0 542.0 
428.0 268.0 729.0 442.0 690.0 539.0 
427.0 270.0 723.0 442.0 690.0 537.0 
426.0 271.0 713.0 447.0 687.0 537.0 
424.0 273.0 701.0 447.0 687.0 537.0 
422.0 275.0 688.0 450.0 685.0 534.0 
421.0 276.0 673.0 450.0 685.0 534.0 
419.0 278.0 657.0 452.0 680.0 534.0 
416.0 280.0 641.0 457.0 682.0 531.0 
414.0 282.0 624.0 457.0 680.0 531.0 
412.0 284.0 607.0 457.0 677.0 531.0 
409.0 286.0 588.0 460.0 675.0 529.0 
406.0 288.0 567.0 460.0 675.0 529.0 
404.0 291.0 549.0 460.0 675.0 529.0 
401.0 294.0 531.0 460.0 672.0 529.0 
398.0 297.0 511.0 457.0 675.0 529.0 
396.0 300.0 489.0 455.0 675.0 531.0 
393.0 303.0 467.0 450.0 675.0 534.0 
390.0 306.0 445.0 450.0 677.0 534.0 
389.0 309.0 425.0 450.0 680.0 534.0 
387.0 311.0 405.0 450.0 680.0 537.0 
388.0 314.0 388.0 452.0 680.0 539.0 
391.0 317.0 373.0 457.0 682.0 539.0 
399.0 319.0 361.0 457.0 685.0 544.0 
411.0 321.0 351.0 462.0 685.0 544.0 
428.0 324.0 343.0 470.0 687.0 544.0 
447.0 325.0 338.0 475.0 685.0 542.0 
468.0 327.0 335.0 483.0 685.0 539.0 
490.0 328.0 332.0 488.0 680.0 537.0 
511.0 329.0 329.0 496.0 680.0 534.0 
531.0 330.0 328.0 496.0 677.0 534.0 
549.0 330.0 326.0 498.0 672.0 534.0 
564.0 330.0 325.0 498.0 670.0 534.0 
576.0 330.0 323.0 498.0 670.0 534.0 
585.0 329.0 321.0 501.0 667.0 534.0 
589.0 329.0 319.0 501.0 664.0 534.0 
589.0 328.0 317.0 501.0 662.0 529.0 
586.0 327.0 315.0 498.0 659.0 524.0 
580.0 325.0 313.0 519.0 670.0 508.0 
574.0 324.0 312.0 531.0 672.0 491.0 
566.0 323.0 310.0 542.0 670.0 480.0 
558.0 321.0 307.0 554.0 652.0 478.0 
551.0 319.0 304.0 557.0 641.0 478.0 
544.0 317.0 301.0 544.0 644.0 488.0 
537.0 314.0 297.0 537.0 652.0 496.0 
530.0 312.0 293.0 519.0 654.0 511.0 
523.0 309.0 288.0 506.0 662.0 524.0 
515.0 307.0 284.0 491.0 667.0 542.0 
507.0 304.0 279.0 483.0 667.0 544.0 
499.0 302.0 274.0 483.0 667.0 547.0 
490.0 300.0 270.0 483.0 667.0 547.0 
481.0 298.0 266.0 480.0 667.0 547.0 
472.0 297.0 264.0 478.0 670.0 549.0 
464.0 296.0 261.0 480.0 667.0 547.0 
458.0 295.0 260.0 480.0 670.0 547.0 
452.0 294.0 263.0 480.0 667.0 544.0 
446.0 294.0 274.0 480.0 680.0 542.0 
442.0 294.0 294.0 501.0 682.0 516.0 
439.0 294.0 323.0 567.0 618.0 450.0 
436.0 295.0 362.0 741.0 516.0 370.0 
434.0 296.0 409.0 987.0 445.0 350.0 
432.0 296.0 461.0 1023.0 511.0 570.0 
431.0 297.0 515.0 647.0 603.0 751.0 
430.0 298.0 561.0 547.0 621.0 687.0 
430.0 300.0 599.0 511.0 649.0 606.0 
429.0 301.0 636.0 478.0 675.0 565.0 
429.0 302.0 668.0 460.0 687.0 544.0 
429.0 304.0 692.0 450.0 693.0 534.0 
428.0 305.0 709.0 450.0 695.0 529.0 
428.0 307.0 718.0 450.0 693.0 529.0 
427.0 308.0 720.0 452.0 690.0 524.0 
425.0 310.0 718.0 455.0 690.0 524.0 
424.0 311.0 711.0 457.0 690.0 524.0 
422.0 313.0 702.0 455.0 690.0 521.0 
421.0 315.0 691.0 460.0 687.0 521.0 
419.0 316.0 678.0 460.0 687.0 521.0 
417.0 318.0 665.0 460.0 685.0 521.0 
415.0 320.0 653.0 460.0 687.0 519.0 
413.0 322.0 638.0 462.0 682.0 516.0 
411.0 323.0 623.0 465.0 680.0 519.0 
408.0 325.0 606.0 462.0 680.0 519.0 
405.0 327.0 588.0 462.0 682.0 521.0 
403.0 329.0 568.0 460.0 680.0 521.0 
400.0 331.0 547.0 462.0 680.0 519.0 
397.0 334.0 526.0 468.0 677.0 516.0 
395.0 336.0 504.0 460.0 682.0 516.0 
392.0 338.0 482.0 460.0 680.0 519.0 
390.0 340.0 462.0 457.0 687.0 521.0 
388.0 341.0 444.0 455.0 687.0 526.0 
387.0 343.0 429.0 457.0 690.0 524.0 
388.0 344.0 414.0 460.0 690.0 529.0 
391.0 346.0 399.0 462.0 687.0 529.0 
399.0 347.0 386.0 465.0 690.0 531.0 
413.0 349.0 376.0 470.0 693.0 534.0 
429.0 350.0 367.0 478.0 690.0 531.0 
448.0 352.0 361.0 483.0 690.0 529.0 
468.0 354.0 356.0 488.0 685.0 526.0 
488.0 355.0 352.0 498.0 685.0 521.0 
508.0 356.0 349.0 496.0 685.0 524.0 
527.0 357.0 346.0 496.0 685.0 524.0 
543.0 357.0 344.0 503.0 677.0 521.0 
556.0 357.0 343.0 508.0 670.0 519.0 
567.0 355.0 342.0 506.0 670.0 519.0 
574.0 354.0 340.0 503.0 670.0 516.0 
577.0 351.0 338.0 498.0 670.0 519.0 
577.0 349.0 336.0 506.0 667.0 511.0 
574.0 346.0 334.0 511.0 667.0 503.0 
569.0 343.0 331.0 524.0 677.0 488.0 
562.0 340.0 329.0 534.0 680.0 470.0 
555.0 336.0 326.0 554.0 667.0 465.0 
548.0 331.0 322.0 560.0 649.0 465.0 
541.0 326.0 319.0 557.0 652.0 468.0 
534.0 320.0 315.0 544.0 654.0 483.0 
527.0 314.0 312.0 542.0 657.0 485.0 
521.0 307.0 309.0 519.0 664.0 501.0 
514.0 300.0 305.0 503.0 670.0 514.0 
507.0 293.0 301.0 491.0 672.0 524.0 
499.0 285.0 297.0 485.0 675.0 531.0 
490.0 279.0 292.0 488.0 670.0 534.0 
482.0 273.0 287.0 483.0 672.0 534.0 
473.0 267.0 282.0 485.0 672.0 534.0 
465.0 262.0 278.0 483.0 675.0 534.0 
457.0 257.0 275.0 488.0 670.0 531.0 
451.0 251.0 275.0 485.0 677.0 531.0 
445.0 246.0 280.0 483.0 677.0 531.0 
440.0 241.0 293.0 488.0 685.0 521.0 
435.0 237.0 310.0 516.0 670.0 491.0 
432.0 233.0 334.0 618.0 590.0 406.0 
429.0 229.0 368.0 836.0 496.0 335.0 
428.0 226.0 410.0 1023.0 445.0 329.0 
426.0 223.0 458.0 846.0 542.0 618.0 
425.0 220.0 507.0 603.0 613.0 728.0 
425.0 217.0 554.0 534.0 634.0 649.0 
424.0 215.0 597.0 496.0 664.0 580.0 
424.0 213.0 633.0 475.0 682.0 547.0 
424.0 212.0 661.0 460.0 693.0 529.0 
424.0 210.0 681.0 457.0 695.0 521.0 
424.0 209.0 693.0 457.0 700.0 521.0 
424.0 209.0 699.0 462.0 698.0 516.0 
423.0 208.0 699.0 460.0 695.0 516.0 
423.0 208.0 696.0 462.0 690.0 516.0 
422.0 207.0 690.0 462.0 690.0 516.0 
421.0 207.0 681.0 468.0 690.0 514.0 
420.0 207.0 670.0 473.0 690.0 511.0 
418.0 207.0 658.0 473.0 690.0 511.0 
417.0 208.0 645.0 475.0 685.0 514.0 
415.0 208.0 631.0 475.0 682.0 514.0 
413.0 209.0 616.0 475.0 682.0 511.0 
411.0 210.0 600.0 478.0 682.0 511.0 
409.0 211.0 583.0 475.0 680.0 514.0 
407.0 213.0 567.0 473.0 682.0 511.0 
405.0 214.0 551.0 473.0 680.0 511.0 
403.0 216.0 533.0 473.0 682.0 514.0 
